label_0.0_percentage,label_1.0_percentage,label_2.0_percentage,label_3.0_percentage
0.99826485,0.0014985279,1.423507E-4,9.4257804E-5
0.0016436575,0.0026653763,0.9956508,4.0118084E-5
4.174117E-4,7.399307E-5,5.529999E-4,0.9989556
0.9973525,0.0018924112,6.6967437E-4,8.539801E-5
0.9988041,1.373002E-4,7.618595E-4,2.967628E-4
0.9955781,0.0038788375,4.9129495E-4,5.168785E-5
0.9602767,0.030835483,0.0075706346,0.0013170975
0.99207217,3.4002244E-4,0.0057812966,0.0018065682
0.9931399,0.0063983053,3.8375973E-4,7.799118E-5
1.7607301E-4,2.3006585E-5,1.2380512E-4,0.9996772
0.9924126,0.0015386904,0.005885738,1.6289842E-4
0.77804035,0.0014093805,0.22037439,1.7586007E-4
0.9822824,0.012122282,0.00537297,2.2241114E-4
0.9970079,0.0027371603,2.4218384E-4,1.2747795E-5
0.9950435,0.0026154458,0.0020244443,3.1660617E-4
0.9884367,0.01081795,6.9071876E-4,5.4671364E-5
0.99855655,0.00128306,9.181595E-5,6.85286E-5
0.0011988449,1.9303532E-4,0.9971751,0.0014330597
0.11966553,0.17435378,0.7055288,4.5195044E-4
0.0030249476,8.968818E-4,5.320834E-4,0.9955461
0.9975321,6.73435E-4,9.954034E-4,7.9897867E-4
2.2267117E-4,6.597846E-5,1.8297888E-4,0.9995284
0.99067277,0.008735348,3.4517876E-4,2.4671992E-4
0.011966431,1.7281927E-4,0.0076315897,0.98022914
0.9970073,0.0012920708,0.0010893008,6.1138254E-4
0.99832374,8.3315076E-4,7.4636337E-4,9.673593E-5
0.60026294,0.002522661,0.39641035,8.0406014E-4
0.99850297,0.0011721175,1.5196817E-4,1.729708E-4
0.9987527,7.350577E-4,4.3444408E-4,7.773739E-5
0.9807616,0.010198306,0.008510133,5.2992016E-4
0.9862981,0.013355083,2.5950547E-4,8.731135E-5
0.9949293,0.0048358263,1.9893887E-4,3.5937202E-5
0.01718883,0.98263425,1.3933494E-4,3.757244E-5
0.9969766,0.0026485259,1.6465447E-4,2.1026655E-4
0.99696714,0.0027936136,2.0441087E-4,3.485042E-5
0.9980719,0.0016148484,2.648447E-4,4.836801E-5
0.9937417,7.549429E-4,0.005183347,3.199649E-4
0.9991436,7.641119E-4,4.1354837E-5,5.0878767E-5
0.97342616,0.0022101789,0.02026026,0.0041033784
0.78901064,0.07483967,0.016639091,0.11951061
0.99545336,0.00431072,2.0969877E-4,2.6146025E-5
0.96862286,0.031199977,1.394056E-4,3.7750073E-5
0.9962509,0.0019352882,8.950815E-4,9.187657E-4
0.994474,0.0053506084,1.05964624E-4,6.944692E-5
0.9994973,2.2885897E-4,2.245851E-4,4.9289843E-5
0.99587905,0.0036757484,3.7955894E-4,6.561963E-5
0.9987863,8.028014E-5,0.0010721324,6.133587E-5
0.032867942,0.060242325,0.9043999,0.0024898916
0.040044583,0.017021788,0.10249092,0.84044266
0.9911931,0.00808424,2.9019342E-4,4.325049E-4
0.6350719,0.002098213,0.36235562,4.742694E-4
0.9892208,0.0016057165,0.0066720326,0.0025014852
0.0045778817,1.843669E-4,0.99508685,1.5092213E-4
7.599698E-4,2.2397112E-4,0.9989097,1.0632536E-4
0.99827695,7.563666E-4,9.2691684E-4,3.9740833E-5
0.9906431,0.008742724,4.6295315E-4,1.5119913E-4
0.9989095,3.2184264E-4,5.329867E-4,2.3567337E-4
0.99444443,0.0047125528,7.600084E-4,8.298741E-5
0.9943679,0.0014678505,0.0038485918,3.1565764E-4
0.9973168,0.002328267,3.1422765E-4,4.0688614E-5
0.98964614,0.00990162,3.5447348E-4,9.77802E-5
0.9847586,0.013672807,0.0014016015,1.6702923E-4
0.99502736,0.0047391863,1.6164538E-4,7.1771654E-5
0.001543678,1.3708542E-4,1.6506888E-4,0.9981541
0.9899783,7.927696E-4,0.008660416,5.685083E-4
0.998579,0.0012420259,9.035081E-5,8.864807E-5
0.9200166,0.07062038,0.003279727,0.0060833595
3.0410543E-4,4.5515106E-5,0.99907327,5.7711545E-4
5.2715227E-4,3.0080692E-4,0.99912995,4.2104566E-5
0.9860386,3.264375E-4,0.004717528,0.008917448
0.99874157,6.6625606E-4,4.937176E-4,9.843176E-5
3.097971E-4,6.083819E-5,2.3978404E-4,0.9993895
0.99388605,0.005972892,6.9357164E-5,7.1643604E-5
0.035204966,2.8378642E-4,9.1739005E-4,0.9635939
0.99896,8.8412047E-4,7.204254E-5,8.3813524E-5
7.188864E-4,1.5063217E-4,0.9986181,5.124075E-4
0.9971756,0.0023284482,4.5656352E-4,3.9367675E-5
0.0073265145,0.99080104,0.0018298713,4.2568892E-5
1.0572018E-4,2.6372487E-5,1.4272735E-4,0.99972516
0.9979868,0.0016007567,3.5270458E-4,5.9752758E-5
0.9937449,0.0020504657,0.0016218262,0.0025828327
0.9909861,0.0034406136,0.0053031193,2.701518E-4
0.9910569,0.0010703388,7.394041E-4,0.007133354
0.96985763,0.02965493,4.3051803E-4,5.6926474E-5
0.0015164436,1.9508305E-4,0.998212,7.647529E-5
0.99336064,0.0025432636,0.003880463,2.1563483E-4
0.94042784,0.0030920794,0.055740494,7.395598E-4
0.997077,0.0027414649,1.5642913E-4,2.5119813E-5
0.99346715,0.0026562922,0.0037832116,9.338555E-5
7.6584576E-4,1.2849706E-4,8.837789E-4,0.9982218
0.9854176,0.0015763448,0.011773446,0.0012326057
0.9966288,0.0028782538,2.1350266E-4,2.79375E-4
0.9986419,0.0012935222,3.648641E-5,2.8092332E-5
0.9808024,4.2370718E-4,0.018541776,2.3212568E-4
0.9961759,0.0036623818,9.000814E-5,7.169391E-5
0.001446556,3.5851562E-4,4.339326E-4,0.997761
0.9909819,0.0074556596,0.0014946228,6.787102E-5
0.99782974,0.0016452175,4.2242848E-4,1.0254963E-4
0.98132586,0.015360352,0.003151245,1.6250397E-4
0.9886896,0.004680128,0.006473332,1.5693884E-4
0.99065584,0.008362146,8.476918E-4,1.3432658E-4
0.9986028,0.0010617436,3.1416572E-4,2.132036E-5
0.98285115,1.8096855E-4,0.016870497,9.738678E-5
0.9655613,0.033994317,3.4141494E-4,1.0294826E-4
0.9757698,0.02396186,1.8104116E-4,8.7328815E-5
0.9746848,0.010756235,0.0138167,7.422591E-4
1.250637E-4,5.7251396E-5,2.025805E-4,0.9996151
0.9750714,0.0010987727,0.01056814,0.013261727
0.9968183,7.4613147E-4,0.002083814,3.5177142E-4
0.99808085,8.816587E-5,0.0017608916,7.010919E-5
0.55832887,0.43896592,0.0019541124,7.5108826E-4
3.3839073E-4,6.739443E-5,4.03715E-4,0.9991905
0.008853665,4.168843E-4,5.394994E-4,0.99018997
0.9929738,0.0062081194,6.8472954E-4,1.3329137E-4
0.89877915,0.03823206,0.058208268,0.004780473
0.99318945,0.0064541004,3.354723E-4,2.1010934E-5
1.3956055E-4,3.0695795E-5,3.7573715E-4,0.99945396
3.166999E-4,4.4394335E-5,2.1449987E-4,0.99942446
0.96709853,5.821722E-4,0.031908263,4.1106055E-4
3.5385462E-4,1.504303E-4,0.9991572,3.385854E-4
0.020784428,7.2911446E-4,0.002430261,0.9760562
5.3317595E-4,8.3960666E-5,0.99919945,1.8343487E-4
0.97565824,0.019042546,0.004695231,6.039681E-4
0.99206686,0.0045352518,0.0031544869,2.4343554E-4
0.94516116,0.039177634,0.012610846,0.0030503438
0.99758387,0.0022704827,1.1462403E-4,3.103531E-5
0.997738,0.002146162,8.870655E-5,2.7168246E-5
0.07130548,0.0020818012,0.04276929,0.88384336
0.027335748,0.972042,4.450154E-4,1.7718927E-4
0.9927972,0.006794667,2.9025308E-4,1.1786496E-4
0.012345278,0.0024152503,0.98508435,1.5508995E-4
6.689171E-4,1.01991354E-4,4.5498245E-4,0.9987741
8.338069E-4,2.474533E-4,3.6895482E-4,0.99854976
0.003570195,1.3341417E-4,3.990977E-4,0.9958973
0.98485583,0.004599834,0.009316903,0.0012274244
0.9916481,0.0068462645,0.0014683559,3.73048E-5
7.9171924E-4,5.2605596E-5,2.6149306E-4,0.99889416
0.99346775,7.184624E-4,0.005605392,2.083648E-4
0.9946568,0.0031914592,0.0020711543,8.05562E-5
8.8639953E-4,4.6043922E-5,1.8810775E-4,0.9988795
0.8538457,0.0013076116,0.11040252,0.03444419
0.0035288245,6.6723715E-4,0.010144858,0.98565906
0.9966487,0.0024071103,5.767304E-4,3.6738857E-4
0.8411306,0.14323108,0.0011051049,0.014533232
0.9926265,0.0043318775,0.0025933355,4.48288E-4
0.97870445,5.81045E-4,0.019954067,7.604699E-4
0.9970149,0.0028656947,6.36627E-5,5.5737582E-5
0.021514269,3.8219764E-4,0.9779568,1.4678515E-4
0.0064154286,0.0010704726,0.99107635,0.0014377458
0.9970463,0.0021973772,6.747288E-4,8.156674E-5
0.99908006,8.233658E-4,4.941806E-5,4.7196838E-5
5.571861E-4,8.1310706E-4,0.9986187,1.09289795E-5
0.9971207,0.0018095911,5.655528E-4,5.0417194E-4
9.138074E-4,1.5097464E-4,7.024539E-4,0.9982327
0.98666894,0.012937565,1.6625626E-4,2.2722282E-4
6.5423263E-4,4.2357984E-5,2.0571065E-4,0.9990977
0.9981565,5.484729E-5,0.0017308105,5.789781E-5
0.99157315,0.008056737,3.3297186E-4,3.7072066E-5
0.99096596,0.003084351,0.0042358637,0.0017138151
0.9784799,0.0013357281,0.01982217,3.6217016E-4
0.00616088,0.9935455,2.7439286E-4,1.9186984E-5
6.6424266E-4,6.685267E-5,0.9991798,8.9065215E-5
1.8883758E-4,5.9932474E-5,1.7286456E-4,0.9995784
0.9854269,0.013946606,5.3194497E-4,9.459619E-5
0.987503,9.701532E-4,0.011243826,2.8298382E-4
0.7687364,0.22976154,0.0012099625,2.920677E-4
0.996711,0.0010382074,0.0011845522,0.001066241
0.9936154,0.0017838291,0.004431746,1.690677E-4
0.99619377,0.0023549856,0.0013628942,8.837148E-5
0.99648017,0.0027167294,7.751977E-4,2.7984137E-5
0.9848409,0.0037879501,0.010341542,0.0010295612
0.9827282,0.016024116,9.0440945E-4,3.4333943E-4
0.9879842,0.011419195,4.8741064E-4,1.09189896E-4
0.9966407,0.0020900287,0.0012171861,5.2074392E-5
0.9828324,3.3115846E-4,0.0164648,3.7171342E-4
0.9888891,0.0053818007,0.005389202,3.3990096E-4
3.591249E-4,3.3298875E-5,2.367746E-4,0.9993709
0.005649633,1.17986245E-4,6.1263697E-4,0.99361974
0.97585005,7.956627E-4,0.023227211,1.2704624E-4
0.99385816,0.0016731656,0.0042479835,2.2065354E-4
2.0477336E-4,5.1640145E-5,1.670921E-4,0.9995765
3.0223222E-4,5.4187978E-5,2.8241673E-4,0.9993612
0.9975802,0.0021431847,2.4443778E-4,3.21394E-5
0.99360836,0.003886516,0.002410544,9.462297E-5
0.9862656,0.013228022,9.5403426E-5,4.1098904E-4
0.99662906,0.0013218995,0.0015725605,4.7645686E-4
0.9977315,0.0020061212,1.1688035E-4,1.4546784E-4
0.0016732914,0.99823797,7.4019496E-5,1.4674916E-5
7.2407053E-4,1.12047084E-4,0.9990778,8.6065535E-5
0.9964385,0.001282606,0.002130071,1.4880496E-4
0.995596,0.0037306924,6.341772E-4,3.9103194E-5
0.9926609,0.006727776,5.6804874E-4,4.323383E-5
0.97528154,0.024359481,3.1812713E-4,4.08309E-5
0.86153036,0.022110382,0.10764449,0.008714796
0.9868815,0.008432538,0.0044446825,2.4135709E-4
0.050010476,0.91858184,0.031243725,1.6393804E-4
0.99372697,0.005455825,4.913109E-4,3.2591037E-4
0.9983783,0.0014135997,1.15621435E-4,9.254479E-5
0.99386096,0.0048539033,7.3854544E-4,5.46611E-4
0.98830473,9.3143043E-4,0.008322169,0.0024417131
0.8835802,0.0029892144,0.11273912,6.914566E-4
0.97435826,0.024696313,4.5929768E-4,4.8615012E-4
1.1366131E-4,2.5731257E-5,6.5343316E-5,0.99979526
0.95308566,0.022753173,0.022663932,0.0014972092
8.39336E-4,1.9727605E-4,0.99878496,1.7843852E-4
1.3822086E-4,3.913121E-5,1.679188E-4,0.99965477
8.7376364E-4,1.585147E-4,0.99880207,1.6565813E-4
1.5190334E-4,5.564037E-5,1.856215E-4,0.9996069
0.9961654,0.0022321856,0.0010948073,5.0764927E-4
0.1127555,0.0017597537,0.8831025,0.0023822626
0.0029423493,1.5234936E-4,0.9968579,4.7421257E-5
7.483823E-5,2.0406125E-5,9.598959E-5,0.99980885
0.0019324381,0.9979432,8.4437066E-5,3.9839473E-5
0.9917881,0.007118025,9.935091E-4,1.00363955E-4
0.0054169088,0.994406,1.376435E-4,3.9430895E-5
0.99839205,0.0015585711,2.8603861E-5,2.0776379E-5
0.97860557,0.016555931,0.0038033943,0.0010350837
0.9935534,0.0017455748,0.0045180684,1.829466E-4
0.9968652,0.0028042784,2.852714E-4,4.519839E-5
0.9939956,6.848023E-4,0.0052028396,1.1675683E-4
6.0987554E-4,3.0021157E-4,0.9980134,0.001076563
0.981587,0.016242241,0.0021077734,6.300029E-5
0.74372447,0.23999152,0.01566027,6.237172E-4
0.9982003,8.643878E-4,8.7900157E-4,5.624738E-5
0.0030376508,0.9963224,5.9741864E-4,4.2570562E-5
0.94213307,0.0024986048,0.051677942,0.0036903645
0.95350724,0.0013827527,0.039857436,0.0052525713
0.99256563,0.0055093803,0.0018732374,5.1756426E-5
0.99583167,0.0038850105,2.5104918E-4,3.2332446E-5
0.0032786475,1.391272E-4,0.9964218,1.6039547E-4
0.0027299575,1.4139405E-4,0.99701023,1.1842171E-4
0.011859973,2.159296E-4,0.9874144,5.0961284E-4
0.9629726,0.03621533,6.538316E-4,1.5832233E-4
0.98649174,3.962684E-4,0.012890055,2.2193776E-4
0.99929893,5.519781E-4,1.0829404E-4,4.0833103E-5
0.99784267,0.002061139,5.4277894E-5,4.192311E-5
0.9957159,0.004044566,1.3904535E-4,1.00488134E-4
7.0742704E-4,4.3628497E-5,8.822777E-5,0.99916077
0.9945973,0.004542876,4.8540594E-4,3.7438195E-4
0.98375875,0.0015874198,0.014049624,6.042694E-4
0.98986197,0.0058505544,0.004095418,1.9210066E-4
0.0013354275,7.981205E-4,0.99781394,5.2511237E-5
0.0067947037,3.2868245E-4,0.99273723,1.3938955E-4
0.99533516,0.004542744,4.5191937E-5,7.688844E-5
0.0013909227,0.0012546582,0.99730515,4.9252096E-5
0.9772702,0.0070485245,0.014713922,9.673175E-4
0.9941071,8.685226E-4,0.004904271,1.20051336E-4
0.78362036,0.026955618,0.18007344,0.009350592
0.99616504,0.0034161285,3.9029005E-4,2.8614051E-5
1.4320154E-4,2.307282E-5,7.4713636E-4,0.9990866
0.82728577,0.06813307,0.09568243,0.008898779
0.04790672,3.5453253E-4,0.95094293,7.9586776E-4
4.3276374E-4,6.9270325E-5,7.0574315E-4,0.99879223
0.9915412,0.007627602,7.331455E-4,9.805015E-5
0.9953762,0.0039601447,5.951027E-4,6.849378E-5
0.96557397,0.006997973,0.024489254,0.0029388554
0.994728,0.0042693415,5.0559104E-4,4.970446E-4
0.9774704,0.02227634,2.0676259E-4,4.6546324E-5
0.99573624,9.467502E-4,0.0032147449,1.0222231E-4
8.2556834E-4,4.2090636E-5,1.825271E-4,0.9989498
3.2153702E-4,2.013926E-4,0.99942756,4.9522452E-5
5.942021E-4,6.2580315E-5,1.2860034E-4,0.99921465
1.5497777E-4,1.5272784E-5,1.12627386E-4,0.99971706
0.9527561,0.0029805305,0.038613144,0.005650171
0.9990575,3.1276466E-4,2.896923E-4,3.4007654E-4
0.9986027,0.001305447,5.7435558E-5,3.4478348E-5
0.0012012275,4.060733E-5,6.975693E-5,0.9986884
0.97745514,0.0046404256,0.01554574,0.002358652
4.4917877E-4,9.53419E-5,0.0021600826,0.99729544
0.9973513,7.4551586E-4,7.7824824E-4,0.0011249537
0.0024885752,2.9256172E-4,0.0011762452,0.9960426
0.99944395,4.784503E-4,6.593433E-5,1.1646462E-5
0.0049112113,6.1935984E-4,0.025862293,0.9686072
0.89750487,0.0043429933,0.07247679,0.025675422
0.99561477,0.0030335097,0.0011352204,2.1646182E-4
0.9893141,0.009919848,6.4471894E-4,1.2130429E-4
0.0023394073,0.0016352399,0.99596304,6.2342355E-5
0.995619,0.0038384274,4.0118737E-4,1.4136476E-4
0.98342633,0.0093864305,0.005704323,0.001482871
0.98885214,0.003555979,0.007332791,2.590838E-4
0.97416264,0.025508905,2.0216788E-4,1.2633632E-4
0.8458572,0.15051074,7.8371883E-4,0.0028483162
9.2083024E-4,8.878881E-5,0.9989519,3.8414422E-5
0.94264877,6.5547583E-4,0.0093014315,0.047394294
0.99671763,2.3926936E-4,0.0029145083,1.2862663E-4
0.9960614,0.0010850207,0.0022811631,5.72469E-4
2.7698156E-4,2.1223731E-4,0.99948055,3.0271935E-5
0.9984736,0.0011563016,3.2522596E-4,4.4906887E-5
0.9903868,0.008919356,5.734614E-4,1.2040373E-4
0.0017883021,1.5786919E-4,0.99789304,1.6083555E-4
0.001060241,6.5855165E-5,2.1581074E-4,0.99865806
0.996829,0.003073282,5.3985714E-5,4.3707332E-5
0.99310243,0.0032194795,0.0024267605,0.0012513093
0.9909217,0.0011336788,9.154957E-4,0.00702918
0.9401547,0.0016343765,0.02372846,0.034482546
0.9982034,0.0013179671,4.1118657E-4,6.747473E-5
0.042090565,3.089317E-4,0.9573773,2.2321931E-4
0.9969458,0.0010621089,0.0019370259,5.5097433E-5
3.2129447E-4,4.90134E-5,2.2522181E-4,0.99940443
0.9969482,4.204814E-4,9.826771E-4,0.001648626
0.9785267,0.001017926,0.009431018,0.011024305
0.9934715,0.005407678,6.6953595E-4,4.5129677E-4
0.9853,0.004078395,0.010351885,2.6967973E-4
0.9984536,0.0012981073,1.7301322E-4,7.5286334E-5
0.98983943,0.0051430017,0.0029707034,0.002046861
0.9586575,0.041026812,2.5771704E-4,5.7928213E-5
0.9952304,0.0016838487,0.0026360832,4.496498E-4
0.9958748,0.003152489,7.1163033E-4,2.6105397E-4
0.9849672,0.013967266,5.408652E-4,5.246291E-4
0.98281556,0.010209961,0.006111051,8.6338515E-4
0.015831161,0.001321019,0.0033188914,0.9795289
0.9840485,0.0011761001,0.01431978,4.556086E-4
0.9995876,3.5438655E-4,3.7193142E-5,2.0837952E-5
1.4143765E-4,3.943435E-5,1.2548428E-4,0.99969363
0.9939243,0.0049805744,0.0010105679,8.455622E-5
0.002123884,0.9976793,9.977486E-5,9.70152E-5
3.0214767E-4,9.348938E-5,0.99955434,4.999795E-5
7.191451E-4,5.0560142E-5,0.0017578282,0.99747247
0.9938054,0.0059777666,1.4556023E-4,7.124501E-5
0.9990609,4.7725247E-4,3.64083E-5,4.2539017E-4
0.0014025079,0.98938984,0.009096285,1.11430236E-4
0.9931687,0.004790329,0.0019120243,1.288739E-4
0.98532605,0.014076471,2.4841947E-4,3.4906444E-4
0.9963342,0.0035143397,5.5315326E-5,9.609993E-5
6.790581E-4,1.2136805E-4,2.7693735E-4,0.99892265
0.9986619,7.923852E-4,2.429607E-4,3.0273473E-4
0.948554,0.050825093,4.949991E-4,1.2590238E-4
0.99879956,3.871948E-4,6.867071E-4,1.2655351E-4
0.99744344,0.0023705687,1.5498139E-4,3.0963838E-5
0.002628542,7.686639E-5,1.759902E-4,0.9971186
0.095218256,8.412908E-4,0.9035211,4.1935983E-4
0.99799675,0.001860505,1.0958946E-4,3.3176846E-5
0.98928493,0.0018208623,5.9344666E-4,0.008300744
0.99526817,0.0023331526,0.0011406295,0.001258009
0.9921234,0.001510153,0.006209488,1.5697948E-4
0.9941554,6.7085424E-4,0.004947244,2.2643675E-4
0.9856333,3.6901777E-4,0.013820093,1.775267E-4
0.9990263,8.544354E-4,7.897681E-5,4.0272294E-5
0.980292,0.01932851,3.1576323E-4,6.362944E-5
0.8332988,0.16505742,0.001483871,1.5988435E-4
0.8248495,0.17464739,2.7227547E-4,2.3087939E-4
0.99768734,1.4839701E-4,0.0018107058,3.5357897E-4
0.9971565,0.0026479212,1.5491375E-4,4.0628573E-5
0.81365454,0.004814139,0.00916357,0.17236774
0.9960484,0.0035921452,2.4106358E-4,1.1839279E-4
0.98368526,0.01215079,0.003809412,3.5458102E-4
0.99669975,0.002633887,6.0380605E-4,6.248106E-5
0.07704109,0.005049673,0.9160531,0.0018561073
0.7204285,0.26030487,0.018600417,6.6617655E-4
0.99799687,3.9782104E-4,0.0012668754,3.38379E-4
0.9976878,0.00219685,6.264519E-5,5.2692307E-5
2.0689165E-4,3.7745922E-5,4.8162942E-4,0.9992737
0.9816773,0.017437132,8.145211E-4,7.104714E-5
0.9860933,0.011568522,0.0022414243,9.6800584E-5
0.99390656,3.747245E-4,0.005210119,5.086069E-4
4.4338775E-4,3.7483318E-5,1.2399821E-4,0.99939513
5.16142E-4,9.202818E-5,2.609511E-4,0.9991309
0.9954431,1.7035098E-4,0.0043149036,7.1656956E-5
0.9519233,7.365352E-4,0.047191136,1.490396E-4
0.9937418,0.005210463,9.903514E-4,5.7383295E-5
0.99491113,0.0033891264,9.790908E-4,7.2068087E-4
0.99477756,0.0046839383,5.011345E-4,3.7312584E-5
0.9966138,0.0030586931,2.8980733E-4,3.7691574E-5
0.99352336,0.0012681745,0.0051231384,8.534595E-5
0.9344299,0.064950295,3.760991E-4,2.4370677E-4
0.37130126,0.57253003,0.05551246,6.562871E-4
0.026439423,4.1209144E-4,0.9730146,1.3384118E-4
0.99953663,3.8696185E-4,2.9013256E-5,4.737434E-5
0.9949443,0.0018838322,0.002442429,7.2949287E-4
0.6551181,0.075398974,0.26849955,9.833773E-4
0.9848918,0.014807009,2.3242978E-4,6.8765825E-5
0.9547426,0.016177848,0.024606477,0.004473043
0.9383678,0.059605427,5.091587E-4,0.0015176482
0.9968004,0.0026846381,4.513184E-4,6.356481E-5
0.029544987,2.8514705E-4,0.96643704,0.0037327928
0.9962966,0.0029772057,6.163756E-4,1.0982971E-4
0.004009075,0.9959122,7.027072E-5,8.526919E-6
0.9830967,0.016411906,3.0251718E-4,1.8890608E-4
0.9975109,0.0019999917,4.2652024E-4,6.262285E-5
5.855396E-4,1.063017E-4,0.0018932634,0.9974148
0.99466044,5.0283276E-4,0.0045730798,2.6365087E-4
0.9933357,0.0020040371,0.0045995703,6.0675655E-5
0.97784674,0.0033362717,0.018618116,1.988097E-4
4.983683E-4,6.2330175E-5,1.1751407E-4,0.9993218
8.417776E-4,1.3967809E-4,0.9981097,9.0889185E-4
0.108621426,0.0010734296,0.8733412,0.016963942
0.9746132,0.024822421,4.854336E-4,7.892906E-5
0.9923889,4.4318594E-4,0.0066962074,4.7173994E-4
0.97944206,0.019018728,0.0011647673,3.7438137E-4
0.99835545,3.282788E-4,0.0012232065,9.304311E-5
0.0014027362,2.5440112E-4,0.99820745,1.3546068E-4
0.9549587,0.043436028,0.0011585134,4.468156E-4
0.9943851,0.0033487412,0.0019333224,3.3287005E-4
0.9934517,3.2988467E-4,0.0049889092,0.0012295078
0.00227484,3.0325312E-4,0.99716955,2.5235835E-4
3.017194E-4,5.1901738E-5,2.944334E-4,0.9993519
0.9971143,0.0024335894,3.7189873E-4,8.016058E-5
6.7379937E-4,1.4309473E-4,1.5126202E-4,0.9990319
0.05775481,0.031002421,0.90338296,0.007859873
0.99680907,0.0026944724,4.299856E-4,6.6451015E-5
0.0010277805,1.0393091E-4,0.998307,5.61231E-4
0.0023784984,0.0012233789,0.9963361,6.206684E-5
0.013738317,0.0012474196,0.98467225,3.420106E-4
0.22724971,7.7431585E-4,0.7685862,0.003389727
0.0020984218,7.993467E-4,0.9966164,4.8582943E-4
5.221367E-4,1.362664E-4,2.3647113E-4,0.99910516
0.99894136,9.1823615E-4,1.1994865E-4,2.043467E-5
0.9857611,0.0039019722,0.010207361,1.2962503E-4
0.9887784,0.001085136,0.0067960853,0.0033403428
0.90304303,9.525931E-4,0.09333586,0.0026685041
0.98774695,0.009941979,0.0013657471,9.453381E-4
0.0042373557,7.324354E-4,0.9947038,3.264053E-4
0.99809176,3.006268E-4,0.0011686486,4.3898908E-4
1.4722356E-4,4.4142176E-5,8.7377854E-4,0.9989348
1.9637374E-4,2.989396E-5,0.9996941,7.961291E-5
0.9919944,0.0037260219,0.0040164506,2.6317E-4
0.010212849,0.0012071625,0.9869817,0.0015983576
4.4620165E-4,1.09250526E-4,1.8019325E-4,0.9992643
0.9967367,6.956316E-4,9.3069376E-4,0.0016369629
0.9992902,6.353411E-4,3.9972994E-5,3.444409E-5
1.2699154E-4,5.4312175E-5,1.5093811E-4,0.99966776
1.2887317E-4,3.995485E-5,1.9209173E-4,0.99963903
0.9990263,8.183858E-4,7.262382E-5,8.272618E-5
2.676806E-4,1.3692924E-4,1.2223654E-4,0.99947315
0.0026483452,4.2591244E-4,0.9967033,2.2245682E-4
0.98788863,0.010880059,0.0010467087,1.8464215E-4
0.9976191,0.0019905777,3.4783946E-4,4.2459826E-5
0.9987734,8.462796E-4,3.5158396E-4,2.8745691E-5
0.99567443,8.387986E-4,0.003173438,3.1333885E-4
0.9904552,8.382636E-4,0.008007449,6.990792E-4
0.99640465,0.0021142147,0.0010489895,4.322071E-4
0.7986623,0.00706203,0.19339657,8.791298E-4
0.9813126,0.0040597715,0.012814984,0.0018126991
0.99675614,4.6635623E-4,0.0025235394,2.5393994E-4
0.9722631,0.0012961603,0.026279932,1.6081677E-4
0.0024584574,0.0012597112,0.99524057,0.001041253
0.9975188,0.0023701743,7.9824626E-5,3.1298372E-5
1.6024451E-4,4.5610836E-5,1.7949307E-4,0.9996146
0.99801195,0.0016583472,2.9000168E-4,3.962774E-5
0.14286315,9.18416E-4,0.0018712586,0.8543472
5.402583E-4,1.596192E-4,5.3532526E-4,0.9987649
0.97737247,0.018761845,0.0022962207,0.0015695106
0.9873072,0.011751904,8.2491455E-4,1.16048424E-4
2.2848934E-4,3.704469E-5,0.9994344,3.0008846E-4
3.260716E-4,8.284025E-5,8.5177226E-4,0.9987393
2.8586233E-4,1.961175E-5,3.7844072E-4,0.9993161
0.996784,0.0012032513,0.0014041826,6.086385E-4
0.023273306,0.0010240761,0.9724081,0.003294532
0.9984547,5.258115E-4,9.4500504E-4,7.4544536E-5
0.99709225,2.3194587E-4,0.0025409295,1.3490861E-4
0.009951406,0.98990154,8.6426335E-5,6.055314E-5
0.9970703,1.5499287E-4,0.002615217,1.5947381E-4
0.9960912,0.0035037154,3.5252463E-4,5.2596744E-5
0.006517172,0.99310017,2.4244917E-4,1.4017649E-4
0.9957165,0.0037525143,1.9125204E-4,3.397634E-4
0.9919721,6.065203E-4,0.0071997703,2.2161144E-4
0.99974924,2.163847E-4,2.181044E-5,1.2519629E-5
0.9960033,0.001064517,0.0011792415,0.0017529322
0.99439985,0.0031052805,0.0022993425,1.9550655E-4
0.9988984,0.0010572749,2.5963556E-5,1.8344808E-5
4.2177405E-4,4.7855538E-5,1.509952E-4,0.9993794
0.99881786,0.001095404,5.4310374E-5,3.2418146E-5
0.99521196,6.4652396E-4,0.004076265,6.5281034E-5
0.99522436,0.0012559961,0.0034045598,1.1503809E-4
0.9970759,0.0027997545,6.0505412E-5,6.3786254E-5
0.9869997,0.0020189947,0.009515339,0.0014659705
2.8024134E-4,2.8978382E-5,0.999587,1.0380695E-4
0.003406248,3.389537E-4,0.004672189,0.9915826
0.99491274,0.0013804586,0.003184627,5.2219856E-4
7.259662E-4,1.412523E-4,3.1684054E-4,0.998816
0.99512583,0.0020795767,0.002711616,8.297492E-5
4.2897658E-4,1.1866606E-4,5.249812E-4,0.9989274
0.98431164,0.0038706732,0.00959947,0.0022181603
0.998047,0.0014529331,3.93869E-4,1.0619919E-4
0.9913345,8.348378E-4,0.0076084505,2.2217154E-4
0.993644,0.0056497357,6.2069943E-4,8.55218E-5
0.9964552,0.002746257,6.607376E-4,1.3780565E-4
0.99394095,0.0056832233,3.2851813E-4,4.7309877E-5
0.99670607,0.0032174692,4.6794925E-5,2.9680143E-5
0.9977041,6.464749E-4,0.0015422766,1.07170286E-4
0.9987809,5.9779413E-4,5.5803097E-4,6.326184E-5
0.9991892,3.8072013E-4,2.9063132E-4,1.3941465E-4
0.9932533,0.0061361003,3.0699538E-4,3.036657E-4
3.911759E-4,6.743541E-5,1.3315704E-4,0.99940825
0.9976109,0.0022520442,1.239013E-4,1.3084271E-5
0.998836,7.776612E-5,0.001019683,6.656347E-5
0.99744093,0.002185664,3.1866643E-4,5.4674434E-5
0.99654925,0.0023122067,9.3187654E-4,2.0661172E-4
0.9880062,0.01106937,8.641288E-4,6.0373604E-5
4.3646264E-4,1.1833988E-4,7.4088055E-4,0.9987043
0.96511,0.001025,0.029886302,0.003978631
0.023841675,7.618266E-4,0.0374937,0.93790275
0.99609214,0.0027928941,8.828279E-4,2.3214276E-4
0.97613823,0.0013819104,0.021477846,0.0010020393
0.99361986,0.0056892135,6.070074E-4,8.393803E-5
0.02846835,0.024011228,0.93849164,0.009028829
0.0011552924,7.7024524E-5,0.9986174,1.5028725E-4
0.026244793,2.4323484E-4,0.97336316,1.4889336E-4
0.0056296433,8.5943175E-4,0.99322927,2.816465E-4
0.007955487,0.99019533,0.0018207381,2.8419608E-5
0.9891388,0.010312219,2.8729314E-4,2.6172263E-4
0.9883023,5.367081E-4,0.010594627,5.663309E-4
4.4845423E-4,1.0038199E-4,0.9993136,1.3754025E-4
0.0019477763,2.0163982E-4,0.003152295,0.9946983
5.5282074E-4,1.663052E-4,2.550576E-4,0.9990258
0.99287087,0.0054075844,0.0015226044,1.9890326E-4
0.99887675,9.1815E-5,9.726555E-4,5.8731344E-5
0.99089885,0.004412619,0.004560115,1.2839788E-4
0.98907274,4.8314585E-4,0.010240799,2.032806E-4
1.3562854E-4,2.896151E-5,2.0043852E-4,0.999635
0.9988175,1.1852136E-4,8.9512626E-4,1.6884592E-4
0.99877924,2.9998214E-4,6.469552E-4,2.7386117E-4
0.9993686,5.564416E-4,4.7626192E-5,2.7332993E-5
0.9989427,0.0010253412,1.6022623E-5,1.5987927E-5
0.99342394,0.0058380137,6.4768374E-4,9.033357E-5
0.99601066,2.5555442E-4,0.0015612905,0.0021724384
0.0020678525,5.908996E-4,0.99680674,5.34571E-4
0.99168515,0.0019258328,0.006313521,7.554666E-5
1.597868E-4,1.7305822E-5,8.946138E-5,0.9997334
0.9964797,0.0032044817,1.9070899E-4,1.251053E-4
0.0011376421,5.325397E-4,0.99817646,1.5342614E-4
0.9965244,0.0031104493,2.9179797E-4,7.337846E-5
0.9945003,0.0024672318,0.0012516726,0.0017808519
5.2379E-4,6.37232E-5,0.99939966,1.28274105E-5
0.9995962,3.4883674E-4,4.747386E-5,7.554199E-6
0.0055789384,9.201707E-5,0.99427223,5.686155E-5
0.9967127,2.1444343E-4,0.0028176135,2.552173E-4
0.99872214,9.249782E-4,2.9621285E-4,5.6657995E-5
0.027135031,0.9711004,0.0016349051,1.2961018E-4
0.9983211,0.0010211543,5.94936E-4,6.2777384E-5
0.009468898,2.2057752E-4,0.98957247,7.3806435E-4
0.017109692,0.013309624,0.9690986,4.820061E-4
0.9792597,0.017708857,0.0027636676,2.6778274E-4
2.814432E-4,8.295329E-5,1.0842844E-4,0.9995272
0.99299663,0.0064181285,4.578434E-4,1.2737006E-4
0.0056372364,0.0011142626,0.9879148,0.005333692
4.400983E-4,5.9595088E-5,5.237553E-4,0.9989766
0.9991154,7.693946E-4,9.848757E-5,1.6701415E-5
0.0211719,0.008321961,0.94795924,0.022546925
0.08030933,4.8695004E-4,0.9189888,2.1490807E-4
0.99667066,8.561194E-4,0.0022940654,1.7916765E-4
0.0014601292,1.237581E-4,1.7761985E-4,0.99823844
9.0925326E-4,1.8178138E-4,0.9985642,3.4478938E-4
1.4094912E-4,3.7925667E-5,1.972372E-4,0.9996239
0.9976634,0.0019285349,3.708908E-4,3.7224352E-5
0.0013396812,1.6108649E-4,0.9984724,2.6869877E-5
0.99816626,0.0017262981,7.153082E-5,3.593353E-5
0.9827156,9.419581E-4,0.004477049,0.011865411
0.999236,4.0049313E-4,3.1655506E-4,4.700372E-5
0.9957688,7.0586265E-4,0.0033734788,1.5186626E-4
2.7496184E-4,3.972861E-5,1.590873E-4,0.99952626
0.970932,5.8698654E-4,0.02840619,7.4778785E-5
0.9954567,0.0036891764,8.161961E-4,3.7879818E-5
0.9978441,0.0012563015,7.787817E-4,1.2086032E-4
0.94240004,0.0061533796,0.0499313,0.0015152738
0.9983841,0.0015051517,7.280493E-5,3.7938786E-5
0.99757797,4.1597907E-4,0.0018901657,1.1587953E-4
0.87875736,0.0059013856,0.11149336,0.0038478856
0.9568609,0.0374201,0.0034521855,0.002266858
0.99918634,7.489271E-4,3.155686E-5,3.3176122E-5
0.9981217,0.0011621984,6.317687E-4,8.4394036E-5
0.9566422,0.006890087,0.017567178,0.01890051
0.99465984,0.004669098,6.0055923E-4,7.050113E-5
0.935595,0.057328675,0.0048775603,0.0021987676
0.9917155,0.002460377,0.0035771434,0.0022470094
3.9961142E-4,5.687594E-5,0.9995023,4.117748E-5
2.674857E-4,3.9700044E-5,1.5342479E-4,0.9995394
0.99789447,0.001736086,1.7926827E-4,1.9017186E-4
0.99847764,2.1259452E-4,1.6978115E-4,0.0011400367
0.99876654,9.799629E-4,2.213408E-4,3.2160653E-5
2.386551E-4,1.7540584E-5,1.09753346E-4,0.999634
0.2729611,0.007101047,0.0026699707,0.7172679
0.9864102,0.002008467,0.011348905,2.3238598E-4
1.4918808E-4,4.9142756E-5,5.4525817E-4,0.99925643
0.99030775,0.0077382736,0.001370859,5.830389E-4
0.9933931,8.0213725E-4,0.0011189658,0.004685749
0.9828827,0.014002792,0.0026005614,5.1397894E-4
0.97236,0.0011681251,0.025916934,5.5494485E-4
0.0048168385,0.9949822,1.7210383E-4,2.8905579E-5
0.010237429,0.0035256436,0.98607826,1.5868567E-4
0.9990089,6.9029955E-4,2.5074012E-4,5.002192E-5
0.99484247,8.4438943E-4,8.566035E-4,0.0034565201
0.9834833,0.0017867432,0.013432818,0.0012970921
0.99464405,9.714752E-4,0.00229105,0.0020934395
0.992941,0.0060647065,4.7560455E-4,5.1867135E-4
0.916491,0.010716122,0.0636264,0.009166444
0.49666664,0.48538563,0.017342316,6.053769E-4
2.7720293E-4,6.1005117E-5,3.1879463E-4,0.999343
0.9939567,0.0017674806,0.0039506843,3.251176E-4
0.9927811,0.0061467416,9.043103E-4,1.6790871E-4
1.8001105E-4,2.3213803E-5,4.8176417E-4,0.999315
0.999514,2.2437776E-4,2.1931472E-4,4.2384443E-5
0.9947918,4.1240756E-4,0.004449069,3.4663462E-4
3.888632E-4,8.3872095E-5,0.99944466,8.257328E-5
0.006876672,3.645372E-4,0.9919871,7.7168364E-4
0.0032781123,0.003653314,4.2659845E-4,0.992642
1.2403612E-4,5.1695642E-5,2.3601105E-4,0.9995883
0.66031617,0.0042710863,0.31297007,0.022442646
0.99635446,0.0026255273,8.5478945E-4,1.651781E-4
0.004724826,0.995031,2.155217E-4,2.8618408E-5
0.99801385,0.0012127782,5.957742E-4,1.7762578E-4
0.99755245,0.002421058,1.8194274E-5,8.289862E-6
0.99563086,0.004138364,1.6083238E-4,6.997419E-5
0.9962018,0.0033789908,3.8027717E-4,3.8896582E-5
0.9985409,0.0011751371,2.513311E-4,3.2715343E-5
5.9306965E-4,8.061844E-5,1.2901527E-4,0.9991973
2.8865068E-4,3.0076455E-5,1.408551E-4,0.99954045
0.5511444,0.37372804,0.07257305,0.0025544348
0.99871695,4.4644682E-4,6.0970185E-4,2.2693683E-4
0.9974789,8.9117425E-4,0.0015536997,7.6244054E-5
0.9972218,0.0019442886,6.559716E-4,1.7789542E-4
0.82731503,0.0011384247,0.0031655678,0.16838099
0.9899861,0.009709136,2.4565516E-4,5.9076894E-5
9.0745685E-5,3.438715E-5,1.3646309E-4,0.9997384
8.881775E-5,1.4866934E-5,3.7372545E-5,0.999859
0.98993826,0.008949745,9.7220246E-4,1.3982043E-4
4.3089228E-4,1.2257407E-4,3.2740922E-4,0.9991191
0.99940884,4.7838807E-4,7.0187474E-5,4.2566393E-5
5.422681E-4,2.543077E-4,0.99868053,5.2288553E-4
0.9961958,0.0031405126,5.4232846E-4,1.2132507E-4
2.2732523E-4,3.391663E-5,9.744128E-5,0.9996413
1.7233886E-4,3.3008626E-5,3.4464223E-4,0.99945
0.9894936,4.60988E-4,0.009562193,4.831869E-4
0.9530173,0.04523413,7.2975445E-4,0.0010188285
3.0527095E-4,5.1001985E-5,9.209062E-4,0.99872285
0.9938876,0.0019540181,0.0037743454,3.840285E-4
0.99567986,0.0038119254,4.545871E-4,5.35623E-5
7.215364E-4,9.455612E-5,0.998868,3.159177E-4
0.9900339,0.009409156,4.531938E-4,1.03762366E-4
8.8600814E-4,5.7210655E-5,0.9988618,1.9497561E-4
0.8584334,0.006394691,0.13366625,0.0015055963
0.07541805,0.0044964748,2.3923542E-4,0.9198463
0.9964778,0.0033811035,6.4346386E-5,7.674421E-5
0.0015483444,2.0526936E-4,0.0038263607,0.99442
0.9953205,0.0045834477,5.1188796E-5,4.4850196E-5
0.99683243,0.0030000892,1.4186988E-4,2.5648424E-5
0.009962469,3.376076E-4,9.879626E-4,0.98871195
0.9805664,0.018396204,9.022358E-4,1.3517459E-4
0.9896265,0.0037652096,0.0063317344,2.7652274E-4
0.99296546,0.0035680612,0.0027884014,6.780906E-4
0.99544984,6.772018E-4,0.0020994898,0.0017734856
0.9728789,0.002498488,0.017687483,0.006935133
0.9867083,6.1582634E-4,0.011925418,7.5043866E-4
0.9974968,0.002033224,3.9162516E-4,7.8353274E-5
0.9939242,0.0051060542,8.867337E-4,8.3010156E-5
0.995552,0.0037366236,6.408055E-4,7.058564E-5
7.7811576E-4,1.9321032E-4,0.9976043,0.001424338
0.32190195,0.019616043,0.6331282,0.025353841
3.9222298E-4,7.7195655E-5,0.9994979,3.2690285E-5
0.96012956,0.002100995,0.006060377,0.031709015
0.9673798,0.030743623,0.0014096416,4.6693292E-4
0.0012356567,1.8445209E-4,2.0759659E-4,0.9983724
0.97913456,0.019485362,0.0012772367,1.02882856E-4
0.98425794,0.014530451,0.0010469594,1.6460204E-4
0.9950959,0.0013520209,0.0034330103,1.1900177E-4
0.9583746,0.041085415,4.2341356E-4,1.1656895E-4
5.5735675E-4,1.9655719E-4,7.905105E-4,0.9984555
0.0015425922,1.3601953E-4,0.9981895,1.3185527E-4
0.82574135,0.17292565,0.0011347189,1.9831581E-4
0.008111511,0.0013906194,4.8714716E-4,0.9900107
0.9925453,0.0021687462,7.931367E-4,0.0044927397
0.9949586,0.003960679,9.6603774E-4,1.147475E-4
0.02864805,5.575544E-4,0.9706745,1.198488E-4
0.0010400533,4.4271708E-4,0.9984061,1.1113534E-4
0.9907872,0.002888791,0.006217777,1.06248306E-4
0.99266726,0.0021608903,0.0046348586,5.3700607E-4
2.2531913E-4,3.1916326E-5,7.7477464E-4,0.998968
0.99549085,0.0040423735,3.3009207E-4,1.367315E-4
0.9950094,5.433642E-4,0.0041288584,3.1831188E-4
0.99891126,6.3696224E-4,3.6283204E-4,8.897727E-5
0.9942999,0.005096022,3.0803191E-4,2.9603398E-4
0.99693453,0.0023491164,6.82448E-4,3.391588E-5
0.05033114,0.0019582713,0.94650173,0.0012088849
0.048784036,0.0014651612,0.94954765,2.0316582E-4
0.97182703,0.0050736596,0.022997199,1.02112484E-4
0.994476,0.0010592549,0.002034092,0.0024306132
0.0027155015,5.905711E-4,7.739972E-4,0.99591994
0.9664825,0.003705851,0.0052893,0.024522355
0.99895895,2.2990465E-4,6.5430126E-4,1.5688695E-4
0.32494482,7.1720703E-4,8.723254E-4,0.6734656
0.97980106,0.00232856,0.016924536,9.4581576E-4
0.9884665,0.009682169,0.0010969561,7.543634E-4
6.208665E-4,1.5431394E-4,0.99908507,1.3968864E-4
2.9534052E-4,6.295087E-5,8.5335254E-4,0.9987884
0.9926352,0.0038132365,0.002423784,0.00112781
1.9177706E-4,5.636719E-5,6.3992996E-4,0.99911195
1.516322E-4,3.0346107E-5,5.1087386E-4,0.99930716
0.99305713,0.0020621244,0.004295648,5.8508315E-4
0.98859835,0.009739706,0.0014084677,2.5345045E-4
0.9959907,7.695681E-4,0.003118532,1.2126771E-4
2.0428946E-4,4.936263E-5,6.300148E-4,0.99911636
0.99899155,8.4891723E-4,8.341506E-5,7.611931E-5
0.9120287,0.08260005,0.0042995643,0.0010717476
0.99874383,6.7402405E-4,4.8120169E-4,1.0099606E-4
0.1794522,8.2367664E-4,0.0050971974,0.81462693
0.007852625,0.0011102136,0.9905996,4.3765522E-4
0.9965899,0.002976001,3.8051093E-4,5.3584317E-5
0.9923983,0.0025651343,0.0048993044,1.3722025E-4
0.0020102933,3.255762E-4,8.2446384E-4,0.99683964
0.99330986,0.0010450354,0.005563,8.20892E-5
0.9876928,3.9570374E-4,0.011652046,2.595106E-4
1.359284E-4,2.3875195E-5,1.4420944E-4,0.999696
0.995956,0.0029376121,0.0010248991,8.148749E-5
1.3594041E-4,2.1000387E-5,1.5036717E-4,0.9996927
5.73693E-4,1.00719204E-4,0.9992483,7.7235876E-5
0.99424666,0.0011055648,0.0043631126,2.8465287E-4
7.9913373E-4,1.7678525E-4,0.9989273,9.6787764E-5
0.9953661,0.0043999585,1.854488E-4,4.851253E-5
0.9968299,0.0010882096,0.0018858435,1.9603329E-4
0.99678254,0.0020221607,0.0010644083,1.3088445E-4
0.0017610017,4.476369E-4,0.99772495,6.6374254E-5
0.9947876,0.0015272324,0.0025575475,0.0011276349
0.9914751,0.005964631,0.0020508731,5.094332E-4
0.9926662,9.809894E-4,0.0016241698,0.0047286847
0.99215126,0.0062698913,8.88693E-4,6.901638E-4
0.9914539,0.00462535,7.4881513E-4,0.0031719275
5.3678197E-4,1.1684782E-4,7.6473743E-4,0.99858165
0.98392767,0.0022714767,0.011698511,0.002102324
0.9973015,0.002494067,1.2925784E-4,7.5161886E-5
0.9972652,0.0016187666,0.0010788377,3.7167396E-5
0.9974347,0.002110645,4.191952E-4,3.55272E-5
0.98988813,0.0022421675,0.007598408,2.7133242E-4
1.1500253E-4,3.659898E-5,1.07656386E-4,0.9997408
0.94544005,0.05262347,0.0017830961,1.5333263E-4
0.99797326,0.0014417019,4.3360025E-4,1.5143251E-4
0.9939231,0.0052892123,6.741543E-4,1.13529495E-4
0.9986986,5.422528E-4,7.306011E-4,2.855382E-5
0.97583973,0.0050235465,0.017807081,0.0013296388
7.9256715E-4,1.3506439E-4,0.9985978,4.745938E-4
0.9890225,0.010505317,1.769887E-4,2.9517268E-4
0.99159384,0.007753837,2.6113956E-4,3.911751E-4
0.99237776,0.005421558,0.0019885881,2.1204993E-4
0.0026067765,0.9971848,1.5857197E-4,4.9871007E-5
0.010588415,4.950025E-4,0.9881393,7.773169E-4
0.98024875,0.0071558775,0.011750393,8.449655E-4
0.9881054,0.011186102,6.443594E-4,6.4165906E-5
0.98675865,0.012801271,1.9756723E-4,2.4251593E-4
0.7943405,0.007151202,0.19731276,0.0011955451
0.97793365,0.0049435915,0.0030430597,0.014079705
8.130704E-4,2.2972886E-4,9.33352E-4,0.99802387
6.2365626E-4,9.143417E-5,0.0020987466,0.9971861
0.9936109,8.7787386E-4,0.0045718024,9.39341E-4
0.998502,0.0011156056,2.330544E-4,1.4932388E-4
0.9944143,0.005221008,2.9849546E-4,6.608799E-5
0.9975625,0.002241338,1.60406E-4,3.5677964E-5
0.01397404,0.9858993,1.06214684E-4,2.0479674E-5
0.99568766,0.0011834422,0.0030684725,6.0448605E-5
0.9986438,0.0011949152,9.455852E-5,6.6668435E-5
0.9870281,0.012227964,3.687324E-4,3.7512855E-4
0.9980635,0.0017182542,1.8169837E-4,3.655312E-5
0.99910164,5.889782E-4,2.570148E-4,5.239455E-5
0.99621767,4.7793594E-4,0.0031364379,1.679365E-4
0.0019837194,5.811304E-5,6.171393E-5,0.99789643
0.99882084,1.4974641E-4,9.780988E-4,5.126526E-5
0.9974994,0.002153359,3.0877418E-4,3.8432387E-5
8.586081E-4,8.5744985E-5,0.9988009,2.5481786E-4
5.888482E-4,1.0239403E-4,5.4646716E-5,0.99925405
0.9231866,0.074675344,0.0019845543,1.5348403E-4
0.0021431316,4.292731E-4,0.0014936978,0.99593395
0.98863435,0.00826021,0.0028685636,2.3690739E-4
9.635582E-4,9.110857E-5,1.1535383E-4,0.99883
0.998359,8.070978E-4,7.333822E-4,1.0043006E-4
0.6350051,0.364459,4.5954142E-4,7.636166E-5
0.99842876,0.0013416139,1.3568545E-4,9.395914E-5
5.4907426E-4,7.9775135E-5,0.9956338,0.0037373796
0.95067996,0.04870463,4.4292127E-4,1.7249066E-4
0.15916094,0.0033427514,0.0011438605,0.83635247
3.5411463E-4,1.1190756E-4,2.1173614E-4,0.9993223
4.5781338E-4,5.969728E-5,0.9990571,4.2540903E-4
0.99358314,0.0059237177,2.914652E-4,2.0169518E-4
0.0010767233,1.4203358E-4,0.9987357,4.550767E-5
0.9928311,0.0067012007,4.3151792E-4,3.6169542E-5
0.9857166,0.0015514871,0.009717162,0.0030147396
0.006000253,7.287037E-4,0.9931891,8.202585E-5
0.005776057,0.99399143,2.1520683E-4,1.7271992E-5
6.17034E-4,1.6353508E-4,1.8613329E-4,0.99903333
0.9608189,0.01113018,0.026778735,0.0012722269
7.258789E-4,1.310618E-4,2.9380215E-4,0.9988493
0.29458886,0.040277757,0.66422856,9.048423E-4
0.99642473,0.003215132,2.598842E-4,1.0025239E-4
7.3841296E-4,5.005717E-5,2.744067E-4,0.9989371
0.9741096,0.0021610418,0.021100376,0.0026289672
0.9910357,0.0010017686,0.007664969,2.9757406E-4
4.9645297E-4,1.2253053E-4,8.567804E-4,0.99852425
0.86370623,0.002681107,0.0032715737,0.13034104
0.9870502,0.0012232226,0.0031070078,0.008619552
3.0387336E-4,5.596017E-5,8.6941366E-4,0.9987708
1.1097302E-4,3.665891E-5,1.5399631E-4,0.9996984
0.0016661419,0.001056961,0.99715245,1.244527E-4
0.9956831,0.0021262963,0.0019870843,2.0359873E-4
0.99774855,0.0012830241,8.9674897E-4,7.161793E-5
0.001051481,1.6274881E-4,3.2545123E-4,0.9984603
0.9983584,2.4466487E-4,4.656879E-4,9.312217E-4
5.5437087E-4,8.034046E-5,2.859121E-4,0.99907935
0.012528296,0.9871265,3.2660918E-4,1.8592646E-5
0.9401303,0.003170603,0.054610346,0.0020887668
1.5340789E-4,3.0309264E-5,6.7478075E-4,0.99914145
3.0367245E-4,8.700162E-5,5.3320016E-4,0.9990761
0.9896185,5.7716086E-4,0.009695723,1.0863898E-4
0.99883014,0.0010829213,4.2752992E-5,4.418978E-5
0.9440527,0.0033552295,0.048774295,0.0038177168
4.350552E-4,7.1135495E-5,6.0828534E-5,0.999433
3.623978E-4,7.277459E-5,1.2431869E-4,0.9994405
0.998779,5.117555E-4,6.297853E-4,7.948658E-5
0.9902036,0.009615696,1.5033883E-4,3.0359883E-5
7.42972E-4,3.535524E-4,0.0073558264,0.99154764
0.04230096,5.6982803E-4,0.9569194,2.0985886E-4
6.260782E-4,1.5563873E-4,2.2119354E-4,0.99899715
0.99894506,7.74908E-4,2.4281922E-4,3.718643E-5
3.2409953E-4,2.6883135E-5,5.218464E-5,0.9995969
0.8864738,0.07302979,0.025638774,0.014857644
0.9969421,0.0022964287,6.782959E-4,8.3101324E-5
0.9974045,0.0012565245,0.0011843393,1.5457961E-4
0.30052775,7.550588E-4,0.6983912,3.259859E-4
5.872664E-4,7.089066E-5,0.9992078,1.3408213E-4
0.65484786,0.34361434,8.582938E-4,6.794799E-4
9.297327E-4,1.4492487E-4,0.99888796,3.7456008E-5
0.95135695,8.256499E-4,0.0050846473,0.042732753
0.98657787,0.012664781,5.678386E-4,1.8955853E-4
0.9950517,0.0046902495,2.0893797E-4,4.9094295E-5
0.9984315,0.0012199862,3.0261674E-4,4.5897956E-5
0.001130846,8.728034E-5,0.9987112,7.0699105E-5
0.63427544,0.24547234,0.1159414,0.0043107797
0.012736658,0.0025265766,7.477159E-5,0.98466194
0.97580296,0.018372882,0.005732643,9.150573E-5
0.99905366,1.4022586E-4,3.9906387E-4,4.0705968E-4
0.9986921,9.1722504E-5,0.0011510463,6.5170454E-5
1.1224083E-4,3.3829292E-5,4.7242764E-4,0.9993814
0.0011136851,5.5561555E-5,0.998628,2.0271463E-4
2.476112E-4,6.921073E-5,0.9993318,3.5138553E-4
1.3909496E-4,2.2660593E-5,1.0493813E-4,0.99973327
0.99774927,0.0018985837,3.1993625E-4,3.2182666E-5
0.059536,0.019023277,0.9175247,0.003916049
0.8677615,0.038391955,6.3623127E-4,0.09321031
0.9899741,0.001174986,0.0080154035,8.3550136E-4
0.9942356,0.0054226033,1.9622041E-4,1.4559727E-4
0.9959776,0.001032718,8.2574313E-4,0.0021640176
0.99690175,0.0028262332,1.537695E-4,1.1823426E-4
4.767752E-4,8.42011E-5,0.998495,9.4407436E-4
0.99630165,0.0033239124,2.7397758E-4,1.0048801E-4
0.7713647,0.008623773,0.21705467,0.002956837
5.450761E-4,1.1226376E-4,0.99929774,4.4934484E-5
0.9922247,0.0013547554,0.006366537,5.4017462E-5
0.9971365,0.0017169716,8.09747E-4,3.3677818E-4
0.99553406,0.0029496108,0.001421757,9.450872E-5
0.98767895,0.011421007,6.843086E-4,2.1577353E-4
0.99875057,6.222096E-4,5.908229E-4,3.6394213E-5
0.9996234,3.229844E-4,1.937108E-5,3.418796E-5
0.9966587,0.002773963,4.9377605E-4,7.36156E-5
0.008366513,0.0018998643,0.9876018,0.002131791
8.225014E-4,3.0325184E-4,0.99881196,6.2327555E-5
0.9969997,6.6719815E-4,9.80576E-4,0.0013525441
0.009992031,6.6657737E-4,0.98810005,0.0012412772
0.99065596,0.0011639147,0.006674857,0.0015052598
0.99957436,3.7553755E-4,2.3143599E-5,2.6986998E-5
0.9984831,5.5944186E-4,6.9411413E-4,2.6330192E-4
0.9976349,0.0012074716,0.001086899,7.0713555E-5
0.9972861,1.4323168E-4,0.0018687916,7.0192566E-4
0.99754363,0.002118815,2.905143E-4,4.6994337E-5
0.99663585,0.002176128,0.0011019922,8.6000786E-5
0.9871895,0.0013765441,0.011340699,9.333979E-5
0.9974744,0.002202692,2.7684137E-4,4.6069217E-5
0.9982382,1.0894856E-4,0.0014631655,1.8965409E-4
0.9987949,0.0010810345,1.053735E-4,1.8654597E-5
0.9872909,0.0056905574,0.005230302,0.0017882941
0.96293163,0.03585977,9.126748E-4,2.9588505E-4
0.9955571,0.0022991246,0.0018780502,2.6569766E-4
5.3424767E-4,1.0943003E-4,3.269421E-4,0.9990294
0.9933949,0.003052135,0.0034806018,7.235624E-5
0.0033843592,3.9717197E-4,0.0014212258,0.9947973
0.9854394,0.014063679,4.1149269E-4,8.544776E-5
0.99935764,5.669413E-4,4.3177264E-5,3.2265176E-5
0.99865216,6.7028555E-4,5.1371404E-4,1.6382086E-4
0.9793276,0.0014807126,0.017825495,0.0013661735
0.977107,0.005696238,0.01654732,6.495023E-4
9.686301E-4,3.7659327E-5,1.566918E-4,0.99883705
8.481512E-4,5.1481962E-5,1.7843646E-4,0.998922
0.9900226,0.009560506,3.3465642E-4,8.2191356E-5
0.99101454,0.008380674,4.378908E-4,1.6695235E-4
1.5909887E-4,3.076405E-5,1.3215332E-4,0.999678
0.99649686,0.0026483573,7.658468E-4,8.89036E-5
0.54323584,0.025761345,0.42958936,0.0014134562
0.9978563,0.0010915503,9.600922E-4,9.201892E-5
0.9862823,0.0018523566,0.011634774,2.305771E-4
0.9275885,0.010677272,0.059413604,0.0023205352
0.9996319,3.1923762E-4,2.445049E-5,2.442206E-5
0.99680966,0.002953597,1.4039905E-4,9.634708E-5
0.9937873,0.0015507126,0.0045152307,1.4676692E-4
3.0180675E-4,2.5687797E-5,0.9995554,1.1707469E-4
1.3091524E-4,4.918544E-5,1.5611242E-4,0.99966383
0.9890316,0.010182997,6.0422637E-4,1.8120067E-4
0.99523747,0.0046529393,6.1906234E-5,4.772169E-5
0.033285294,6.0079654E-4,0.9660009,1.12965055E-4
0.9926347,0.0065580555,7.318433E-4,7.54295E-5
0.744254,0.0052372273,0.24784,0.0026688098
1.5388904E-4,4.3445903E-5,4.167143E-4,0.99938595
0.99258,0.0064663165,6.885594E-4,2.6516774E-4
0.9983656,3.0698258E-4,0.0012406228,8.676581E-5
0.998722,8.366823E-4,3.712888E-4,7.001414E-5
0.92297006,0.0716415,0.00527843,1.1006208E-4
0.94380873,0.054054257,0.0019896335,1.4732349E-4
0.9979703,0.0015152836,4.7479453E-4,3.9673992E-5
0.7726357,0.003311091,0.18424794,0.03980528
3.8504036E-4,2.1229198E-5,4.1153206E-5,0.99955255
0.9952661,0.0022403183,0.0023424735,1.5113845E-4
1.7850749E-4,4.1617728E-5,1.20982026E-4,0.99965894
0.0018692199,5.813248E-4,0.99745995,8.949652E-5
4.3201738E-4,1.6009771E-4,4.745756E-4,0.99893326
0.99293876,0.0064998334,5.07837E-4,5.352121E-5
0.046486013,0.0075290683,0.94545436,5.3061615E-4
8.0478715E-4,1.0508733E-4,0.0038242904,0.99526584
0.9872273,0.0015709661,0.010399129,8.0250256E-4
0.9943721,0.005260966,2.8741872E-4,7.9416655E-5
0.98284817,0.015005228,0.0019565972,1.9007907E-4
0.017211422,0.9826888,7.5750264E-5,2.4002444E-5
0.98595446,0.012308415,0.0016524813,8.4647465E-5
1.7974383E-4,4.3184045E-5,5.7424005E-4,0.9992029
0.9872658,0.010914543,1.7234647E-4,0.0016472563
2.1382105E-4,4.273229E-5,1.6608421E-4,0.99957734
0.9539625,0.014508935,0.023725087,0.007803483
0.9847666,0.014661662,2.1991486E-4,3.518411E-4
9.0024166E-4,2.7549113E-4,5.2541745E-4,0.9982988
0.9983,0.0012459497,3.875078E-4,6.6602275E-5
0.97212416,0.027603345,2.0445629E-4,6.80316E-5
2.8154626E-4,8.915108E-5,0.99926025,3.6903055E-4
0.98950887,0.0035456717,0.0043469393,0.0025985304
1.3938756E-4,4.420184E-5,0.0029293376,0.996887
0.92953384,0.0024249633,0.06492781,0.0031133434
0.9927539,0.00491785,0.0016316952,6.9656543E-4
0.952739,0.046068836,9.081813E-4,2.8396695E-4
0.99668604,0.0019976709,0.0011920962,1.2419758E-4
0.91688955,0.0026224032,0.07918126,0.0013067476
0.002424409,5.967647E-4,0.9969516,2.7275366E-5
0.0015789452,4.7782323E-4,0.9975407,4.0251485E-4
0.006239671,0.99353373,1.5760343E-4,6.900197E-5
0.9949384,6.243572E-4,0.0042444607,1.928569E-4
0.9909185,0.008509784,4.673294E-4,1.0429766E-4
0.9982969,0.0012342772,3.897266E-4,7.908407E-5
0.0041115093,0.9957871,6.193528E-5,3.9518134E-5
0.9817023,0.01764629,5.659271E-4,8.541207E-5
0.9574834,0.0037119093,0.03477356,0.0040311343
9.3776884E-4,2.4462768E-4,0.9987264,9.120404E-5
0.98885673,0.0021599603,0.002020237,0.0069630975
0.9951989,0.0047169807,3.559465E-5,4.8566773E-5
0.99487114,0.0014728467,0.0035770794,7.897128E-5
0.97900164,0.001096606,0.006180165,0.013721543
0.9975206,0.002366214,5.0745475E-5,6.233793E-5
0.98842037,0.011327676,2.2008004E-4,3.1910564E-5
0.993189,0.0065930653,1.4897023E-4,6.905885E-5
0.8612989,0.009713812,0.10611023,0.022877036
0.9823117,0.0010285842,0.015989367,6.703228E-4
0.9955193,0.0022420692,0.0019980231,2.4064917E-4
0.0012843389,3.162616E-5,1.2623901E-4,0.99855775
0.99718225,0.002616864,1.4501334E-4,5.5871908E-5
0.9995789,2.7876906E-4,1.1928758E-4,2.3037652E-5
0.9810838,0.0068611167,0.004183303,0.00787172
0.9977914,0.0019539169,2.0531478E-4,4.935357E-5
0.76602167,0.003678671,0.17167228,0.05862741
0.99893564,9.621692E-4,8.0376805E-5,2.1772104E-5
0.9995352,3.8949933E-4,4.5118148E-5,3.0185172E-5
0.99871063,0.001253181,2.4123938E-5,1.2072596E-5
0.98007697,0.0033562449,0.016323699,2.4309474E-4
0.99873585,0.0011555165,4.9870563E-5,5.8750004E-5
0.99671376,1.81767E-4,0.0028350153,2.6951285E-4
0.9910206,0.0049543465,0.0037762478,2.488063E-4
3.2388055E-4,5.8662656E-5,5.845494E-4,0.999033
0.9603798,0.0025756042,0.03411917,0.0029254446
0.99920964,6.8674143E-4,8.919869E-5,1.4409895E-5
3.844072E-4,1.2183143E-4,2.0635556E-4,0.9992874
0.0011885256,1.62333E-4,0.9982685,3.8067397E-4
3.030947E-4,6.8555506E-5,5.8914896E-4,0.9990392
0.98874694,0.010708004,4.7525475E-4,6.9795824E-5
0.99804544,0.0012604251,6.3904363E-4,5.505452E-5
0.9694173,8.578954E-4,0.029573267,1.5155278E-4
3.9550266E-4,1.0616109E-4,1.4291654E-4,0.9993554
0.99550444,0.0038754167,5.5618474E-4,6.3939195E-5
0.941816,0.0041968925,0.050647613,0.0033395574
0.9952852,0.0043374207,3.1903386E-4,5.8402475E-5
4.1953594E-4,3.739882E-5,1.3313949E-4,0.9994099
1.1367198E-4,6.1525636E-5,2.2361695E-4,0.9996012
0.9894085,0.009251172,4.455092E-4,8.948211E-4
0.9830483,0.016540127,3.4028216E-4,7.1250804E-5
0.99766135,0.0017610221,4.6733228E-4,1.103022E-4
0.9988348,8.747511E-4,2.2116455E-4,6.9307316E-5
0.9961016,0.0014178454,0.0024176107,6.295552E-5
0.004221022,0.9955445,1.4970709E-4,8.479669E-5
0.9900713,0.009150927,6.208391E-4,1.5686871E-4
0.9749518,0.0056822784,0.015442616,0.003923317
0.9956506,0.0035602166,7.541163E-4,3.5145582E-5
0.9782656,8.855496E-4,0.020684488,1.6440367E-4
0.99460655,0.004757676,5.7028764E-4,6.545608E-5
0.9990453,1.5275007E-4,7.340431E-4,6.784194E-5
2.2960844E-4,4.988842E-5,5.3458876E-4,0.99918586
0.0018286398,0.0012400779,0.99689025,4.101534E-5
0.0016993961,1.3371871E-4,0.99806887,9.8012155E-5
0.0019698436,3.1575034E-4,7.105433E-4,0.99700385
6.957876E-4,1.516042E-4,0.9986369,5.157141E-4
0.41562918,0.0031162791,0.5810541,2.0041902E-4
0.011676568,0.9878128,4.8253222E-4,2.8113272E-5
0.9902576,0.009333916,2.8776735E-4,1.2073399E-4
0.9942238,6.253694E-4,0.0047114016,4.3941272E-4
0.52009237,0.0042209895,0.46520814,0.010478491
0.71986747,0.27932855,6.225939E-4,1.8132085E-4
3.4937903E-4,3.3050794E-5,1.4599865E-4,0.9994716
0.98206735,0.005322894,0.011214843,0.0013949027
0.9820104,0.0012790149,0.01636958,3.410163E-4
0.0010307434,0.0019190401,0.9970354,1.47909295E-5
0.9969079,0.0026845026,3.6019232E-4,4.7444493E-5
0.97447246,0.0017588368,0.02358111,1.8753376E-4
0.99940526,4.4132254E-4,9.465264E-5,5.8764548E-5
0.0016023095,1.9413665E-4,0.997109,0.0010945466
0.96294326,5.6357816E-4,0.036386188,1.0696965E-4
0.994344,0.003493814,0.0017377151,4.2452817E-4
0.99923635,2.5022475E-4,4.635715E-4,4.989741E-5
0.9966935,0.0029087316,3.3446567E-4,6.3261374E-5
0.9969989,8.802327E-4,0.0019430775,1.777556E-4
0.9978823,0.001688867,3.948583E-4,3.3929933E-5
0.9975479,0.0022844835,1.2819363E-4,3.938737E-5
0.99208766,0.0041659046,0.0035985727,1.4782794E-4
0.96309847,0.010623484,0.02441432,0.0018637665
0.99885833,9.088313E-4,7.28343E-5,1.5997613E-4
0.9582643,0.041420847,2.3681035E-4,7.8026926E-5
0.9982492,0.0016300142,8.008376E-5,4.0816707E-5
0.0025208648,0.0013932321,0.99597126,1.14636896E-4
0.94027144,0.015177635,0.041393038,0.0031579374
0.9946572,2.8306516E-4,0.0044197333,6.3993805E-4
6.908038E-4,1.991548E-4,2.7674728E-4,0.99883336
0.9875568,0.010580614,0.0016027007,2.5989366E-4
0.99801946,0.0014401828,4.4951172E-4,9.090484E-5
0.99068755,2.3254739E-4,0.006841349,0.002238563
0.8647187,8.333133E-4,0.024458215,0.109989785
0.9974515,0.0022001432,2.182656E-4,1.3004009E-4
3.331984E-4,3.2715237E-5,9.972344E-4,0.9986368
0.99771416,0.0020174927,1.4030922E-4,1.280565E-4
0.22119427,0.0044850553,0.7726406,0.0016801403
4.562056E-4,1.9037766E-4,0.008224099,0.9911293
0.9960388,0.0033770495,3.0906274E-4,2.7504264E-4
0.0011527552,0.0024452903,0.9963716,3.039515E-5
0.009743525,5.2978715E-4,0.016165942,0.9735607
1.6505073E-4,5.725026E-5,1.5006372E-4,0.9996276
0.99514943,9.2691573E-4,0.0037360638,1.8763762E-4
8.669331E-4,2.097118E-4,0.99889225,3.1094925E-5
0.0011929256,8.7706256E-5,1.8969645E-4,0.9985297
0.9831523,0.005273336,0.011340779,2.3363349E-4
0.6964485,0.23431227,0.0688645,3.7471743E-4
0.99111146,0.007897914,9.493392E-4,4.1278883E-5
0.99163204,0.00765807,5.549667E-4,1.5496319E-4
0.99731296,2.089163E-4,0.0024184973,5.9601818E-5
0.98054755,0.0015426802,0.0027598778,0.015149833
0.9965283,1.8301327E-4,0.0030989747,1.8964837E-4
0.99666375,2.9691696E-4,0.0012385931,0.0018007371
0.97101307,0.0010657918,0.027729591,1.9155229E-4
0.99327457,8.4283116E-4,0.0058097206,7.2842835E-5
0.9908913,0.0030388648,0.0051661488,9.037526E-4
0.99439406,0.005292216,2.5633298E-4,5.736141E-5
0.99159485,0.008169668,2.0104331E-4,3.4365046E-5
0.0024713199,1.2356305E-4,0.9973326,7.251937E-5
0.9973334,0.0020878585,4.886679E-4,9.0086774E-5
0.9922072,0.0027100353,0.005033817,4.897898E-5
1.6537399E-4,3.2032807E-5,5.2984874E-4,0.99927276
0.9819292,0.017808262,1.0519461E-4,1.5742292E-4
9.923763E-5,3.100407E-5,1.6214635E-4,0.99970764
0.99449337,0.005462074,2.2601795E-5,2.1967164E-5
0.9914169,0.0032721404,0.0043921643,9.1878994E-4
0.9718242,0.025512338,6.969276E-4,0.0019665426
0.9957327,0.0020551337,0.002049675,1.6246435E-4
2.4222645E-4,6.0940714E-5,0.9983032,0.0013936271
0.006443826,0.99314207,2.9261695E-4,1.21516234E-4
0.08437119,0.0010793009,0.91434,2.0951316E-4
0.99681276,0.002731983,1.7124305E-4,2.8398633E-4
0.99653196,0.0030152036,3.7766414E-4,7.5158496E-5
5.830627E-4,1.6485075E-4,1.3089548E-4,0.99912125
4.6352058E-4,5.747183E-5,1.0080793E-4,0.9993782
0.9932775,0.006002988,3.3105173E-4,3.884837E-4
0.9980166,0.0018090608,1.4250273E-4,3.181716E-5
0.99768555,5.8879665E-5,0.0021773432,7.8242345E-5
0.9274257,0.005719117,0.05898248,0.007872671
0.9961486,0.003020194,6.831059E-4,1.4817818E-4
0.05133875,0.0019934739,0.9325425,0.014125268
0.9953231,0.004367495,2.4134795E-4,6.800283E-5
0.99556255,0.0042387275,8.476499E-5,1.1394646E-4
0.99304116,0.006806835,9.581875E-5,5.619952E-5
0.0013682396,4.335201E-5,1.4129162E-4,0.9984471
0.9977144,0.00212381,1.3630895E-4,2.548704E-5
3.1608302E-4,5.1115727E-5,5.4411317E-5,0.9995784
0.9988607,9.873054E-4,1.2503941E-4,2.6896534E-5
0.9967128,0.0016518089,0.0015652127,7.0189584E-5
0.98961836,0.0034986048,0.0067028073,1.8027023E-4
0.008273102,0.99132866,3.0616013E-4,9.21329E-5
0.0019128968,1.4844966E-4,0.9975569,3.8166775E-4
0.09505611,0.01923127,0.5599408,0.32577178
1.6497317E-4,6.05176E-5,5.280712E-4,0.9992465
0.9829214,0.005372921,0.011344671,3.610676E-4
0.9879925,0.01137615,4.862274E-4,1.4506589E-4
0.99883026,9.34795E-4,1.9524987E-4,3.971208E-5
0.9875212,0.009831909,0.0025324926,1.1447155E-4
0.9965062,5.969974E-5,0.0033555368,7.858062E-5
0.005566266,1.1725425E-4,5.6662096E-4,0.99374986
6.691492E-4,1.8822649E-4,0.99897826,1.6435358E-4
0.99192315,0.0032966842,0.004302702,4.7740914E-4
0.9940597,0.002562038,0.003252563,1.2579364E-4
0.44331998,0.012251218,0.118337736,0.4260911
8.227333E-4,1.4591141E-4,1.9503888E-4,0.99883634
0.994601,0.0041474225,0.0011329354,1.1863762E-4
0.962071,0.037501775,3.351402E-4,9.205464E-5
0.0035726987,8.839723E-4,9.4442914E-4,0.99459887
1.4966502E-4,2.0831103E-5,1.2436122E-4,0.99970514
0.051959623,6.0140423E-4,0.94724506,1.939347E-4
0.99872845,0.0010111792,2.3407808E-4,2.6251566E-5
0.9972036,7.253741E-4,0.0020108747,6.0129052E-5
0.007879515,0.0013867583,0.9889921,0.0017417101
0.0063670236,1.7788506E-4,7.9725217E-4,0.99265784
0.9960995,0.0035402398,2.8793476E-4,7.232313E-5
0.04086746,0.020203246,0.9376039,0.0013254103
5.5538607E-4,1.3939054E-4,0.9991136,1.915352E-4
0.999584,3.7024397E-4,2.0942967E-5,2.4855332E-5
0.046243202,0.0015972217,0.9520295,1.3002874E-4
4.794642E-4,8.371958E-5,0.99767286,0.0017639268
0.9960055,5.576892E-4,0.0031514023,2.8541623E-4
0.9543937,0.045164935,3.658289E-4,7.558368E-5
3.1198582E-4,8.463044E-5,0.9993963,2.0708998E-4
2.2124412E-4,2.4136676E-5,7.6268094E-5,0.9996784
0.9976954,0.0020951158,1.8490717E-4,2.4611554E-5
4.36048E-4,4.5551194E-5,9.148177E-5,0.99942696
0.0022087453,0.0010702378,8.568916E-5,0.9966354
2.498704E-4,3.2047836E-5,1.3474203E-4,0.9995833
0.9941262,0.0018437759,0.00295799,0.0010720688
0.9948625,7.936816E-4,0.003649026,6.9473026E-4
0.9950824,0.0045662257,2.9041973E-4,6.095952E-5
0.9922712,0.007307657,3.828201E-4,3.839061E-5
1.08849374E-4,2.8968796E-5,1.673701E-4,0.9996948
0.01319938,0.98408604,0.0026940643,2.0511745E-5
0.99378645,0.005837649,3.0927183E-4,6.662842E-5
0.00406609,0.9957425,1.15682094E-4,7.569713E-5
0.99459827,0.0032822776,0.0019319155,1.8749507E-4
0.9922982,0.0070554367,5.8350636E-4,6.288738E-5
0.9939885,0.0053942837,5.203227E-4,9.683595E-5
0.9896588,0.0039948244,0.006191936,1.5451065E-4
0.014680764,0.0011913042,0.98148996,0.0026380064
0.8084831,0.005364774,0.17842387,0.0077282144
0.99636793,0.0024564422,0.0011170913,5.8479112E-5
0.04449532,0.003559208,0.0050274557,0.94691795
0.9983187,4.3014955E-4,4.6089792E-4,7.90268E-4
0.005148656,3.3014573E-4,0.9900445,0.004476774
6.375409E-4,1.4618215E-4,1.5535207E-4,0.9990609
0.9990189,8.0999086E-4,8.147753E-5,8.9642635E-5
0.9924752,0.007071028,3.75773E-4,7.797942E-5
0.90176505,0.008647099,0.08555969,0.0040281913
0.9957682,2.3283206E-4,0.003893999,1.0504787E-4
0.9937284,0.0028448526,0.003294956,1.3175726E-4
0.0011402206,1.2492629E-4,2.5522467E-4,0.99847966
0.7814492,0.20999151,0.008465579,9.37005E-5
2.0778987E-4,1.1536178E-4,0.0013246698,0.99835217
0.98220944,0.01750335,2.3660288E-4,5.05491E-5
0.9955478,0.0039963317,3.5199997E-4,1.0394725E-4
3.521141E-4,3.992259E-5,9.6567135E-5,0.99951136
0.99381644,0.005624541,4.410061E-4,1.1798846E-4
9.899066E-4,6.239973E-5,0.99873346,2.1425204E-4
0.78567934,0.055816364,0.14020446,0.018299818
0.9862407,6.7365373E-4,0.0010915225,0.0119942
0.99629223,0.0011078573,0.002081909,5.1803095E-4
0.990746,0.0032134322,0.005945196,9.5306634E-5
0.9792492,4.4766942E-4,0.0013210133,0.0189821
0.9976042,0.0022728404,7.463249E-5,4.833317E-5
0.6145687,5.1341765E-4,0.3838396,0.0010782123
0.99807334,5.6535075E-4,5.253621E-4,8.35875E-4
0.9987608,7.986992E-4,2.7887846E-4,1.6162242E-4
0.9943505,0.0047779437,5.249063E-4,3.4665302E-4
1.0740109E-4,2.018792E-5,1.10304165E-4,0.9997621
0.99877447,0.0010803931,1.2193624E-4,2.3149065E-5
6.2442E-4,1.8906884E-4,1.6153278E-4,0.999025
0.99723685,0.0025069716,2.2520105E-4,3.0913907E-5
0.9968341,0.0021114661,4.3370173E-4,6.207249E-4
0.9914613,0.003993212,0.004461516,8.401223E-5
0.58898675,9.6428645E-4,0.0054668463,0.4045821
0.1815436,0.0011569593,0.8171198,1.7969478E-4
0.9981987,0.0013122781,4.306614E-4,5.836951E-5
2.575019E-4,3.4508386E-5,1.6473238E-4,0.9995433
0.9023331,0.09621853,0.0011491652,2.992906E-4
1.1784166E-4,2.8571145E-5,1.6582162E-4,0.9996878
0.99903846,5.6156798E-5,6.8953563E-4,2.15895E-4
0.99402314,0.0049066823,0.001011761,5.8454774E-5
0.9449595,0.01206811,0.041674774,0.0012976308
0.9843746,0.0019816298,0.012853304,7.9047435E-4
0.99534935,0.0043945294,2.1594335E-4,4.0172195E-5
0.99782604,0.0012668688,8.078996E-4,9.921175E-5
0.98740935,0.011789948,3.7910003E-4,4.2160184E-4
0.9963819,0.003557803,3.7861835E-5,2.2436994E-5
0.996031,0.0036912626,1.4178584E-4,1.3590454E-4
0.986631,0.012706283,4.8598167E-4,1.7678634E-4
0.99552083,0.003450318,9.248952E-4,1.0391372E-4
0.09901867,0.010842344,3.7297385E-4,0.889766
0.9978607,4.2210554E-4,4.087613E-4,0.0013084359
0.9820979,0.001953173,0.014620187,0.001328751
0.99668944,0.0011448927,7.3796033E-4,0.0014276609
0.9959837,0.003656085,3.0910753E-4,5.1124123E-5
0.96825063,0.031280976,3.9956358E-4,6.879308E-5
0.98943675,0.0074197813,0.0024146785,7.287683E-4
0.99852777,4.2950566E-4,8.888779E-4,1.5387409E-4
0.9551459,0.0025997981,0.034585472,0.0076688714
0.60743594,1.530692E-4,0.39132228,0.001088693
0.17192481,0.051846,0.77373403,0.0024951762
0.9904964,0.009259996,1.3515362E-4,1.0842161E-4
0.9824337,0.0019516599,0.014354602,0.0012600635
3.5636057E-4,1.0186695E-4,1.6233041E-4,0.9993794
0.9936603,0.005647953,2.367859E-4,4.5505553E-4
4.9056887E-4,3.6022582E-5,1.4397452E-4,0.99932945
0.99495184,3.1238547E-4,0.0046095494,1.2625655E-4
0.8985422,0.013031613,0.08798822,4.3787374E-4
0.93800586,0.06079846,0.0011329373,6.269602E-5
0.99219525,0.004189346,0.0033824835,2.3291062E-4
0.9992286,6.5414276E-4,8.22313E-5,3.501045E-5
0.9827724,0.008388151,0.008649123,1.9030491E-4
2.189015E-4,3.7783546E-5,4.8228513E-4,0.99926096
0.99653035,0.0023539714,9.220877E-4,1.9365204E-4
0.9889544,0.007116693,0.001410402,0.0025185395
0.9977964,0.0017164883,4.1672916E-4,7.034206E-5
0.9982298,0.0014834884,1.8950786E-4,9.718675E-5
2.4926124E-4,4.784332E-5,1.250048E-4,0.99957794
0.99767953,0.001688787,5.6406937E-4,6.7616085E-5
0.99658406,4.1188832E-4,0.0028546948,1.4938455E-4
0.9979721,0.0018718696,1.16406445E-4,3.968863E-5
0.9984043,8.709806E-4,6.2393956E-4,1.0074706E-4
1.555791E-4,2.4888952E-5,3.7341047E-4,0.9994461
0.9925746,0.0060362276,0.0012497786,1.393877E-4
0.99293876,0.0040344778,0.0027861176,2.4062794E-4
0.01539473,2.1858525E-4,0.9842944,9.224438E-5
2.2182714E-4,5.475537E-5,0.999432,2.913386E-4
2.6886957E-4,3.2610547E-5,2.3758177E-4,0.999461
0.9380891,0.0016073379,0.060124055,1.7954293E-4
1.539954E-4,1.4510158E-5,1.2750011E-4,0.99970394
3.6465973E-4,7.1605806E-5,1.9872337E-4,0.99936503
0.99235874,3.9494256E-4,0.007020377,2.2588359E-4
0.9986858,4.0553565E-4,6.2649365E-4,2.8219732E-4
0.9976172,0.0020208857,2.7808826E-4,8.385234E-5
0.9862155,0.01303954,6.450563E-4,9.988213E-5
0.99787915,6.9058995E-4,0.0012940483,1.3621009E-4
0.98151773,0.0025454126,0.014819528,0.0011172852
0.75050825,0.24391048,0.0054773027,1.0391453E-4
0.009793142,0.0012047562,0.9879039,0.0010981704
0.9928636,8.000827E-4,0.0058205845,5.1578565E-4
0.9784153,0.0010555583,0.020097418,4.3173428E-4
0.99645823,0.0014763427,0.001971504,9.3856186E-5
0.9922064,0.007148479,5.3343974E-4,1.11695146E-4
0.99747616,3.1700873E-4,0.0020110782,1.958019E-4
0.9979188,0.001862774,9.69264E-5,1.215224E-4
0.0010480654,1.1451418E-4,0.9987772,6.0170667E-5
0.12701885,0.8709802,0.0018954261,1.0553131E-4
2.6755533E-4,4.334694E-5,0.9996698,1.9364017E-5
0.9980572,0.0015327672,2.716102E-4,1.3838768E-4
0.99673647,3.120154E-4,0.0027922578,1.5924947E-4
0.5790278,0.111205034,0.019983632,0.28978357
0.9982071,0.0013998384,3.5125727E-4,4.1829415E-5
0.9995609,3.4865018E-4,4.6718997E-5,4.373134E-5
0.9993406,5.64932E-4,7.2634815E-5,2.1840751E-5
0.9968034,0.0025431176,6.155924E-4,3.7851274E-5
0.7980892,0.17944519,4.541944E-4,0.022011416
0.031333875,0.9658343,0.0027291598,1.0268131E-4
1.7342293E-4,4.6480167E-5,1.3908916E-4,0.99964094
0.99322283,0.006206527,3.6262974E-4,2.080333E-4
0.9798115,0.019549506,3.2820087E-4,3.1084815E-4
1.8944743E-4,2.1007298E-5,8.446328E-5,0.999705
1.5407451E-4,1.4696782E-5,1.4395715E-4,0.9996873
0.9976278,0.0020329857,2.8031558E-4,5.889434E-5
0.9837134,0.0029892677,0.012749052,5.482807E-4
0.9886109,0.00918699,8.581372E-4,0.0013439626
9.6921826E-4,8.211375E-5,1.4110706E-4,0.99880755
0.9982344,7.9844275E-4,8.921253E-4,7.501705E-5
0.0060775136,1.2938483E-4,0.99374664,4.6414032E-5
0.99188226,0.0022900328,0.0057428516,8.48706E-5
0.97716534,0.0016504816,0.01996376,0.0012203604
0.8071525,0.004118887,0.18118219,0.0075463434
0.99552804,6.361224E-4,0.0033809461,4.5485256E-4
0.99625397,0.0014421756,0.0021332765,1.7061889E-4
7.853478E-4,5.1283245E-5,1.5793911E-4,0.9990055
0.49232757,0.035450403,0.43658692,0.0356351
6.507483E-4,1.3149182E-4,0.9990996,1.1812935E-4
0.002433118,0.0011184826,0.9963291,1.1928091E-4
0.99110776,0.008299064,3.9699502E-4,1.962206E-4
0.9952173,6.437274E-4,0.0022360026,0.0019029137
0.028099673,5.235227E-4,0.9713065,7.0246046E-5
0.98198396,0.017589597,2.8517368E-4,1.4124205E-4
0.0021867685,0.0010483707,0.9966882,7.669902E-5
0.9989479,2.8315195E-4,6.449538E-4,1.2394389E-4
0.016683534,0.0015032869,0.9816218,1.9135932E-4
0.69060963,0.004972076,0.047155257,0.257263
0.9935468,0.0057469946,5.901682E-4,1.16096686E-4
0.012298677,0.9869893,5.366611E-4,1.7537491E-4
0.9103788,0.0070064864,0.08056482,0.0020498715
6.855179E-4,1.7752752E-4,7.749315E-4,0.998362
7.4373354E-4,1.10235975E-4,4.7058446E-4,0.9986754
0.001518613,0.0015592108,0.99686533,5.6842586E-5
0.644864,0.031299926,0.3225941,0.0012419699
1.6893195E-4,5.322345E-5,2.3399232E-4,0.99954385
0.99448735,0.004985972,4.0740662E-4,1.19278615E-4
3.674996E-4,8.4036656E-5,4.666609E-4,0.99908185
0.5639116,0.39039487,0.04196098,0.0037325085
0.023990616,0.9751145,7.7871676E-4,1.1612106E-4
0.99530965,0.004273115,1.7618736E-4,2.409983E-4
0.97785884,0.0073099025,0.0133826705,0.0014486139
0.9957539,0.0039687734,1.5817674E-4,1.1912203E-4
1.1667232E-4,3.120127E-5,1.0414586E-4,0.99974793
0.0013049806,2.1093863E-4,0.9983069,1.771884E-4
0.017311456,1.4426054E-4,0.9824468,9.748188E-5
0.18858202,5.9460226E-4,0.031113956,0.7797094
0.49932826,6.433285E-4,0.49821362,0.0018147634
0.9977133,8.051237E-5,0.0021425225,6.361507E-5
1.498669E-4,3.9917555E-5,5.8982766E-4,0.9992204
0.9990434,8.7332656E-4,4.0691208E-5,4.258245E-5
1.8636211E-4,2.5128384E-5,1.335095E-4,0.999655
0.99871874,7.7895194E-5,7.0840184E-4,4.949533E-4
0.98482794,0.013393697,0.0010744851,7.038328E-4
2.581232E-4,2.3574208E-5,1.0443095E-4,0.99961394
2.2971926E-4,4.2036067E-5,6.310644E-4,0.9990972
0.99784184,4.9750594E-4,0.0016302031,3.0460356E-5
0.99438286,0.0022331863,0.0014605974,0.0019233588
0.99605066,0.0020110377,0.0017629289,1.7541468E-4
0.9977762,0.0014482619,6.611538E-4,1.1433299E-4
0.0049610734,1.2852228E-4,0.9948801,3.0379011E-5
0.9845663,0.01513152,2.0265896E-4,9.959353E-5
0.98749465,0.0110280495,0.0012662468,2.1105661E-4
0.99857724,3.3507208E-4,6.002286E-4,4.8743057E-4
0.9980342,0.0013489777,4.298515E-4,1.870065E-4
0.9987704,2.3120455E-4,8.445803E-4,1.5378883E-4
0.99842584,0.001469602,9.233277E-5,1.2216569E-5
0.9902615,0.007935709,0.0017470112,5.584624E-5
4.771146E-4,5.2972857E-5,1.6691168E-4,0.999303
2.5073517E-4,1.962717E-5,2.229398E-4,0.9995067
1.5512359E-4,1.8702527E-5,1.4237601E-4,0.99968386
0.9734225,0.02229829,5.722404E-4,0.0037069703
0.9973636,0.0024493295,9.949913E-5,8.752333E-5
0.6993362,0.29580078,0.0045402288,3.228305E-4
3.4788015E-4,2.0357357E-4,0.999428,2.0541995E-5
0.99768066,0.0018061588,4.265894E-4,8.656574E-5
0.9961708,0.00326722,3.4484803E-4,2.1711047E-4
0.0016002118,0.0014705812,0.9968929,3.6238427E-5
1.4658926E-4,5.3782136E-5,1.9329679E-4,0.9996063
9.804438E-4,1.2934953E-4,0.9987326,1.5763717E-4
0.968529,0.02739021,0.0031853023,8.954366E-4
1.5340504E-4,2.7146065E-5,4.4302334E-4,0.9993765
0.9976005,0.0021779116,1.1620541E-4,1.0541926E-4
0.9949056,0.002599985,0.0023478684,1.4654445E-4
0.9977617,0.0021094664,7.310899E-5,5.5723616E-5
0.98285264,0.0017336057,0.009859731,0.0055540656
1.9773675E-4,2.9951485E-5,5.2818353E-4,0.9992441
0.996393,0.003382309,1.7425744E-4,5.035494E-5
0.9983621,0.0015411503,4.6324916E-5,5.0386992E-5
0.9947725,3.345606E-4,0.0045233294,3.695975E-4
0.99814916,2.0437704E-4,0.0013699639,2.7649337E-4
0.0019634147,1.4985846E-4,0.997695,1.9167867E-4
0.993363,6.376695E-4,0.00558164,4.1772294E-4
0.9968436,0.0016578431,0.0014508255,4.7762704E-5
0.99573404,0.0037867469,2.539148E-4,2.2536059E-4
2.8710524E-4,1.11927824E-4,0.99926966,3.3127653E-4
0.9990139,5.136317E-4,4.2591896E-4,4.6510766E-5
0.9879303,0.011695215,2.8122318E-4,9.321789E-5
0.9965257,0.0010893797,0.0022658375,1.1906803E-4
0.98790926,8.1678905E-4,0.0110621955,2.1183057E-4
0.99450856,0.004926779,4.7655075E-4,8.812596E-5
0.99735355,1.9940364E-4,0.0021442277,3.0276776E-4
0.9945692,0.005322024,6.3956475E-5,4.483032E-5
0.994306,0.005381455,1.4044283E-4,1.7207056E-4
0.99764746,0.0016280937,3.376702E-4,3.8677713E-4
1.4692855E-4,2.5220965E-5,1.3839791E-4,0.99968946
0.99859434,0.0012960159,6.561713E-5,4.4056327E-5
0.003226292,0.00226191,9.863574E-5,0.9944132
0.9841195,0.00306848,0.012240068,5.7190424E-4
0.9927129,0.003534496,0.0034417135,3.1082288E-4
0.9810703,0.018655619,2.4107558E-4,3.2975942E-5
0.9987326,2.6916293E-4,8.464686E-4,1.5174024E-4
0.9805994,0.01805036,8.773315E-4,4.7291984E-4
0.9984127,0.0013713067,1.9285106E-4,2.308071E-5
6.706961E-4,2.466192E-5,1.9279E-4,0.99911183
0.99720263,0.0024756636,2.4668808E-4,7.497748E-5
0.001205104,8.948218E-5,0.9983335,3.719712E-4
0.991231,0.0068326583,0.0018542391,8.2033264E-5
0.9994246,5.2618876E-4,3.2355496E-5,1.6884438E-5
0.08829327,0.0019482155,0.9093479,4.1059955E-4
8.3812565E-4,1.4960088E-4,2.1952274E-4,0.99879277
2.1606525E-4,3.6938047E-5,1.3809567E-4,0.99960893
4.345045E-4,7.349044E-5,4.8798032E-4,0.99900407
2.5033884E-4,4.00421E-5,9.917648E-4,0.9987179
0.9957918,0.0033074974,8.6138863E-4,3.9310682E-5
0.99731284,0.001655928,8.278882E-4,2.0327394E-4
0.9909729,0.0032686202,0.0053971983,3.6132723E-4
0.025506807,4.5252312E-4,0.9739435,9.717019E-5
0.99445045,0.005291385,2.3064006E-4,2.7564422E-5
0.99520725,0.004662394,6.5504675E-5,6.484242E-5
0.99620074,0.0032704808,1.5063326E-4,3.78131E-4
0.9926807,0.007064184,7.942134E-5,1.7568245E-4
0.99829096,1.0211833E-4,0.0014028804,2.0405803E-4
0.99751127,0.0020073291,2.3848035E-4,2.4295054E-4
0.9833776,0.014461841,0.001836514,3.2409286E-4
0.0010876699,2.440425E-4,0.99780566,8.626591E-4
9.6177566E-5,2.1544314E-5,5.6891284E-5,0.9998254
0.97581154,0.0016729396,0.0181254,0.0043901135
0.99374866,0.0059676482,2.0349135E-4,8.0216836E-5
0.9615924,0.035099264,0.0018829199,0.0014253714
0.9941208,0.0038000664,0.0020265668,5.2534568E-5
0.99518174,4.6834224E-4,0.0018590038,0.0024909112
8.944801E-4,1.6763418E-4,0.998543,3.94847E-4
0.99842924,6.6892727E-4,8.189895E-4,8.2851504E-5
0.992191,8.083324E-4,0.00647153,5.2915054E-4
0.9879167,0.011506587,5.3431717E-4,4.2398362E-5
0.014765893,0.98492026,2.4254728E-4,7.13221E-5
0.99489886,0.00424977,3.0254526E-4,5.4886367E-4
0.9892597,0.01025591,2.607421E-4,2.2360573E-4
0.9964585,0.003304216,1.9502787E-4,4.2278574E-5
0.99772173,0.001436163,6.171593E-4,2.2487156E-4
0.9958717,0.0032730226,7.7227573E-4,8.302754E-5
0.0021605368,8.321132E-5,0.99774015,1.613208E-5
2.3640129E-4,2.7940187E-5,5.5464046E-5,0.99968016
0.97699624,0.0024233442,0.019859182,7.212545E-4
0.99720347,0.0023671756,3.5102462E-4,7.835256E-5
0.99882334,0.0010842843,4.6852314E-5,4.551596E-5
0.002500728,0.0013707369,0.9960419,8.658937E-5
0.9860892,0.0052269683,0.007099473,0.0015843445
0.9985857,4.864643E-4,5.987047E-4,3.2913234E-4
0.9904246,0.008802409,7.283169E-4,4.4664837E-5
0.0038592052,0.004195386,0.99180484,1.4060807E-4
0.9985311,7.7904074E-4,5.8252324E-4,1.07301275E-4
0.0011287279,7.4907424E-5,2.3117314E-4,0.99856526
0.9688459,0.019760733,0.009111447,0.0022818777
0.9653187,9.7123446E-4,0.029868364,0.003841697
0.99794537,0.0018186357,2.0384038E-4,3.21309E-5
0.99147767,0.005749519,0.0010285532,0.0017442701
0.9976526,0.0011636851,0.0010466716,1.3709992E-4
0.9968149,0.002704802,3.8222678E-4,9.8047654E-5
2.7742455E-4,3.9787483E-5,9.6856867E-4,0.9987142
0.0017872647,4.885411E-4,0.9888364,0.008887767
0.98678607,0.004598659,0.00766956,9.456951E-4
1.2908009E-4,1.1447914E-5,6.487764E-5,0.99979466
7.855621E-4,1.8193907E-4,8.7359035E-4,0.9981589
5.316043E-4,3.9785467E-5,8.5811465E-5,0.99934274
0.99812406,4.418721E-4,0.0010766968,3.5730525E-4
0.0026290547,0.0037902188,0.99329454,2.8621245E-4
0.9943521,0.0021747558,0.0031938425,2.79319E-4
0.9483647,0.049618267,0.001266965,7.500475E-4
4.4118165E-4,4.209783E-5,1.9801194E-4,0.9993187
0.9960783,5.209693E-4,0.0032531065,1.4765513E-4
0.9981299,0.0017658594,4.6810677E-5,5.748572E-5
0.9970788,0.0027199266,1.20574514E-4,8.074689E-5
0.001102578,0.0010862955,0.99774724,6.3816E-5
0.0017494333,1.4842342E-4,0.9979419,1.602118E-4
0.9960145,3.6297264E-4,0.0015908243,0.0020317016
5.938013E-4,1.312351E-4,2.2417393E-4,0.9990508
0.99556303,0.004032993,2.57668E-4,1.4637693E-4
0.0061107324,3.1143473E-4,0.0029576384,0.99062014
0.99838877,0.0013795703,2.0047041E-4,3.1186675E-5
0.95871043,0.040556382,5.818076E-4,1.5135008E-4
0.9968951,0.0024451874,5.5216113E-4,1.0752177E-4
1.4766131E-4,1.8977518E-5,3.7134922E-4,0.99946207
0.9955888,0.00403263,2.9094325E-4,8.76551E-5
0.99913293,1.4388005E-4,4.4244973E-4,2.80776E-4
0.06543266,0.93411577,3.3743476E-4,1.14137416E-4
0.98991114,0.006688435,0.0028179039,5.825198E-4
0.99812406,0.0014558763,3.6519504E-4,5.4906424E-5
0.9428556,0.005455986,0.046327524,0.0053608646
0.98448575,0.015281137,5.485286E-5,1.7824181E-4
2.7286785E-4,2.0977373E-5,1.5909791E-4,0.99954706
0.6000275,0.39879885,9.883449E-4,1.852478E-4
0.99875045,5.262515E-4,6.014361E-4,1.21898076E-4
1.225341E-4,5.088038E-5,7.1783914E-5,0.99975485
0.99672467,0.002301112,7.482071E-4,2.2603315E-4
4.528153E-4,8.5311374E-5,0.9994135,4.845252E-5
0.0334844,0.0013625328,0.9647088,4.442521E-4
0.9991684,7.361628E-4,5.6117897E-5,3.9319137E-5
0.70655733,0.010620036,0.10345627,0.17936637
3.2002773E-4,6.359872E-5,0.0010544123,0.9985619
0.0022050985,9.723831E-5,0.9976247,7.2991665E-5
0.057657257,0.94179004,4.3929886E-4,1.1332638E-4
7.6110166E-4,6.517921E-5,7.500694E-5,0.9990988
0.99770457,5.5791065E-4,4.405308E-4,0.0012970587
0.9562109,0.0025206367,0.033498425,0.007770007
0.99387485,0.005607165,3.401897E-4,1.7780667E-4
0.9932836,0.0061538545,4.1009244E-4,1.5238069E-4
0.9987923,9.3938055E-5,0.0010513703,6.242359E-5
0.9120111,0.0046623587,0.08127997,0.0020465665
0.9994271,4.8339015E-4,5.0147006E-5,3.9364477E-5
0.99214244,0.007625007,1.3055763E-4,1.02010556E-4
0.9625247,0.015650235,0.013356165,0.008468917
0.9956958,0.0037584638,4.736449E-4,7.20073E-5
0.99818355,0.0014473996,2.3840497E-4,1.3065134E-4
0.74593794,0.2521423,9.7070984E-4,9.4902405E-4
0.9986939,0.0012024359,6.958283E-5,3.4084063E-5
0.9828362,0.017002692,1.1632108E-4,4.4830165E-5
0.97515464,5.4621225E-4,0.024139531,1.5961564E-4
0.049080912,0.010100672,0.93862814,0.0021902635
5.7363964E-4,1.0878954E-4,5.1606604E-4,0.99880147
0.8852726,0.0076023974,0.02588334,0.08124165
0.98291564,0.001207871,0.013717498,0.0021590164
0.9981669,3.1006473E-4,0.001303416,2.1953294E-4
0.91252244,0.08718696,1.7959096E-4,1.1105136E-4
0.0027110134,1.4364405E-4,0.99675614,3.8917482E-4
0.01693449,0.012599336,0.9437826,0.026683582
0.044908985,0.004565953,0.94977945,7.456514E-4
0.9984047,1.8031386E-4,5.815231E-4,8.3349244E-4
0.002243192,0.99761766,9.084035E-5,4.831793E-5
0.032840215,2.3143351E-4,0.9667913,1.3710374E-4
0.0011031626,0.0016072917,0.9972791,1.0419144E-5
0.9995271,2.372178E-4,1.9539503E-4,4.024659E-5
0.99871004,5.788687E-4,6.5385125E-4,5.7274236E-5
0.99697113,0.0026913856,2.9772462E-4,3.9733994E-5
0.9987305,0.0012088374,3.1762916E-5,2.8880913E-5
7.149615E-4,1.2372788E-4,7.0702727E-4,0.99845433
0.013985699,9.765929E-4,0.9845562,4.8146685E-4
0.75026864,0.0054538893,0.24384359,4.3388706E-4
0.99599993,0.0011943663,0.0025578525,2.4787063E-4
0.07179259,7.74099E-4,0.0036475991,0.9237857
0.98218876,0.002049795,0.015549496,2.119309E-4
0.5185105,0.47559124,0.005169241,7.2903506E-4
1.970078E-4,2.40172E-5,7.156518E-4,0.9990633
5.20034E-4,1.8730017E-4,1.6681271E-4,0.9991259
0.99832064,0.0011399249,4.579744E-4,8.147006E-5
0.99768054,0.0016246152,6.1034085E-4,8.446227E-5
0.95470685,0.038847975,0.0059609795,4.8424327E-4
0.99158794,0.0036418692,0.0046610725,1.09150526E-4
0.9945387,0.0012138895,0.004156785,9.056224E-5
0.9981833,0.0010504812,6.8992906E-4,7.621827E-5
0.966845,0.03273605,3.086892E-4,1.1028749E-4
0.883464,0.1158075,4.606696E-4,2.6788106E-4
0.011453187,0.0037469824,0.9835833,0.0012165959
0.9846576,4.2718492E-4,0.013320928,0.0015942934
0.9879033,0.0011831584,0.009875773,0.001037776
0.9962768,0.0031858485,4.8197384E-4,5.5345223E-5
1.7418682E-4,3.9593728E-5,4.3363302E-4,0.99935263
3.144371E-4,1.12417496E-4,3.859687E-4,0.9991872
0.994964,0.0027140528,0.0022714185,5.0525323E-5
0.9987099,1.3469621E-4,0.0010015889,1.5377408E-4
0.9394793,0.009039796,0.0448049,0.006676034
4.7657607E-4,1.129093E-4,1.438938E-4,0.99926656
4.3472808E-4,2.3279882E-4,0.0043917596,0.99494076
0.98863786,0.010281888,9.397559E-4,1.4046364E-4
0.9974262,1.4341556E-4,0.002171897,2.5846506E-4
0.9977812,0.0019250469,2.586621E-4,3.514436E-5
3.9079323E-4,3.3055432E-5,1.6436112E-4,0.9994118
0.99909115,8.166928E-4,5.4585467E-5,3.7534184E-5
0.9104868,7.0672116E-4,0.011180945,0.077625506
0.99336493,0.0016525801,0.0047467947,2.3567687E-4
0.87499785,0.10645925,0.018345548,1.9730041E-4
0.98096746,0.01786218,0.001067862,1.02465536E-4
0.98696065,0.011394263,6.0727657E-4,0.0010378369
0.97315896,0.02412025,0.002272568,4.4821054E-4
0.9980756,0.0016801617,1.7239181E-4,7.180564E-5
0.010633505,0.0016926321,0.98593175,0.001742097
3.7929535E-4,1.063357E-4,0.999488,2.6408281E-5
0.999132,4.3629238E-4,2.4960688E-4,1.8214753E-4
0.9992848,5.725446E-4,9.124363E-5,5.145839E-5
0.9940996,0.005618974,2.1588273E-4,6.560897E-5
0.01426947,2.270675E-4,0.985344,1.5944931E-4
0.99336135,9.697816E-4,0.0056195883,4.9291484E-5
0.98480564,0.012940545,0.001268503,9.853077E-4
0.9934006,0.0049635246,0.0014098152,2.2609807E-4
0.9951125,3.9340195E-4,0.0040331716,4.6101067E-4
0.9561497,0.008452987,0.013207007,0.02219038
0.9964359,9.0087246E-4,0.0025834132,7.984542E-5
0.9948783,0.0047875997,2.7470465E-4,5.93891E-5
0.9988918,1.19231496E-4,8.2668127E-4,1.6228277E-4
0.99587077,0.0018308761,8.268496E-4,0.0014715418
0.9938806,4.3589593E-4,0.005543529,1.3998729E-4
0.0014239459,0.9984617,7.277497E-5,4.1620882E-5
0.99758995,8.739451E-4,4.04561E-4,0.0011316012
8.988492E-4,1.10402034E-4,0.99891484,7.595365E-5
0.9956014,0.0015573883,0.0027065019,1.3463318E-4
0.9974408,1.2642931E-4,0.0021692524,2.6346263E-4
1.909368E-4,2.2535765E-5,1.8310522E-4,0.99960345
4.0184337E-4,4.7605303E-5,8.621576E-4,0.9986884
0.9902817,4.225455E-4,0.008569356,7.263661E-4
0.9627881,0.036558136,5.082769E-4,1.4546416E-4
0.99698347,0.002302166,6.4269215E-4,7.167878E-5
0.9977863,0.0020278257,1.2970838E-4,5.611247E-5
0.9980325,9.620871E-4,9.0369384E-4,1.0173374E-4
0.7141851,0.0014036206,0.2841124,2.98893E-4
0.9965076,0.0032687983,1.2839097E-4,9.5179406E-5
0.9979892,0.0018167072,1.4145057E-4,5.2724106E-5
0.9995097,4.322671E-4,3.3212156E-5,2.4815165E-5
0.25015426,0.0077483715,0.7408575,0.0012398742
0.98133355,0.018037539,5.031147E-4,1.2583219E-4
0.982788,0.016476639,5.3264113E-4,2.0268571E-4
0.0013408811,3.6867517E-5,1.4918321E-4,0.9984731
0.9948191,2.8150255E-4,0.004545228,3.541412E-4
6.7243015E-4,1.4095251E-4,0.998657,5.296182E-4
0.9975,0.0023786917,9.152474E-5,2.9728812E-5
9.744738E-4,1.2315749E-4,0.002287989,0.9966144
0.9988551,1.4633975E-4,4.5421856E-4,5.4431404E-4
3.938463E-4,8.876411E-5,0.99936575,1.5160376E-4
0.9969047,0.0029331676,8.9994304E-5,7.215401E-5
0.9986833,0.0010328094,2.3381048E-4,5.011982E-5
0.9840687,0.010327108,0.0035684034,0.0020357538
0.9940654,6.568494E-4,0.00510153,1.7622237E-4
0.99498534,0.0014772502,0.001158731,0.0023787138
0.9928464,0.0012301259,0.005653576,2.6985118E-4
1.7199121E-4,4.7725945E-5,7.8418147E-4,0.9989961
2.2576681E-4,3.6251065E-5,1.6552981E-4,0.99957246
0.9966246,0.0029390794,2.5984584E-4,1.7655679E-4
0.9971722,0.0025683325,2.3051558E-4,2.897235E-5
0.9473898,0.004755491,0.046773393,0.0010812877
1.2082505E-4,1.4329684E-5,3.568805E-4,0.9995079
8.22064E-4,7.320411E-5,9.914504E-5,0.9990056
0.008526436,0.006041454,0.9839842,0.0014479384
0.9838357,0.015702784,3.9544277E-4,6.614798E-5
0.9983589,2.3941687E-4,0.0012796932,1.2194945E-4
0.008824263,0.0012871408,0.9889088,9.797856E-4
0.9947726,0.004000319,0.0010881174,1.3895628E-4
0.83502036,0.14470233,0.0017384781,0.018538801
0.99936646,1.825228E-4,2.9983863E-4,1.5115316E-4
0.9996294,3.3609357E-4,2.0773758E-5,1.3779769E-5
0.99249434,0.006120099,7.3438976E-4,6.511171E-4
0.9991247,6.763969E-5,6.121034E-4,1.9556387E-4
3.5913053E-4,6.839474E-5,1.07351676E-4,0.99946517
0.9968431,0.0022985206,7.569979E-4,1.0138966E-4
0.99316037,0.006359409,3.2896586E-4,1.5124689E-4
0.99755585,0.0023872463,3.4885703E-5,2.2002494E-5
0.9977081,4.6953317E-4,0.0017506772,7.171679E-5
0.90990144,0.05872582,7.480491E-4,0.030624658
2.534833E-4,5.3233973E-5,0.99965084,4.2389358E-5
0.99444276,0.0051740673,2.2605743E-4,1.5712692E-4
0.99696606,0.0013618445,0.0010563547,6.157933E-4
1.4925319E-4,1.5437647E-5,8.180982E-5,0.99975353
0.59868,0.22342981,0.16679183,0.011098362
9.662906E-4,2.1972074E-4,0.9986388,1.7514291E-4
5.9940125E-4,1.2061211E-4,0.99903935,2.4065746E-4
0.99663466,0.0021192778,0.0011966038,4.9515824E-5
0.85216534,0.1420185,0.0051044314,7.1180024E-4
0.9960829,5.488758E-4,0.0032176264,1.5054824E-4
0.99751484,0.0011392628,9.874036E-4,3.585181E-4
0.99793136,0.002035049,1.8362494E-5,1.5229577E-5
0.98960704,0.009957567,3.6556998E-4,6.983509E-5
0.98522204,0.0065064477,0.0075417794,7.29698E-4
3.9419575E-4,1.1296429E-4,7.332557E-5,0.99941957
0.19642456,0.8010164,0.0024446747,1.1441553E-4
0.0051500406,5.5410515E-4,0.0015161942,0.9927797
0.9925925,0.005929664,0.0014122727,6.557883E-5
0.0011763228,0.0010050852,0.99780256,1.5997972E-5
0.98396665,0.001207722,0.013491827,0.0013338159
0.99366224,0.004324502,0.001966775,4.6490222E-5
0.9967167,0.0025161437,7.008084E-4,6.633184E-5
0.9982942,0.0015571332,1.0690376E-4,4.1761712E-5
0.91639304,0.07540777,0.007965018,2.3420203E-4
0.9985091,0.0013536575,1.0395493E-4,3.330962E-5
0.001289752,4.0238287E-5,5.3202116E-4,0.99813795
0.9941849,0.0028743187,0.0026739244,2.6689374E-4
0.9986808,0.0011627203,9.166787E-5,6.4852284E-5
1.83236E-4,5.754987E-5,6.81308E-4,0.9990779
0.9982413,8.633523E-4,5.797586E-4,3.1561326E-4
0.99930346,6.110562E-4,6.1468265E-5,2.4014544E-5
0.99797827,0.0019697465,3.3788336E-5,1.8178953E-5
0.9372034,0.02114938,0.009594779,0.03205239
0.9941823,4.098427E-4,0.0050254622,3.8244136E-4
0.99920315,6.930118E-4,4.2703505E-5,6.1203675E-5
0.99694365,0.0027542408,2.567859E-4,4.528777E-5
0.001742263,0.0013122169,0.9968636,8.1936276E-5
3.5683866E-4,8.1376005E-5,0.9994246,1.3729093E-4
0.9923672,0.0023730632,0.005190362,6.9392845E-5
0.3769941,9.3067915E-4,0.6216474,4.2780404E-4
4.213553E-4,6.249803E-5,2.8781162E-4,0.99922836
0.9993242,4.9005495E-4,1.5582217E-4,2.9903395E-5
0.9825049,0.013319329,0.003478271,6.9749565E-4
0.93038315,0.0064662886,0.055889014,0.0072615375
0.99727005,0.0022139216,3.2178918E-4,1.9421653E-4
0.0829438,0.0028181812,0.8644426,0.049795404
0.9958311,0.0039015457,1.90956E-4,7.645662E-5
1.8880301E-4,1.0964617E-4,0.0010245187,0.99867696
0.99736243,1.5887816E-4,0.0022948326,1.8386265E-4
0.98371005,0.007727387,0.0021194979,0.006443067
0.9987049,7.290852E-4,4.8639136E-4,7.9612604E-5
3.0011008E-4,2.0319114E-4,0.9992224,2.7430608E-4
0.94554746,0.0057583163,0.045692474,0.0030016883
0.98818934,0.0113830445,3.5292565E-4,7.462858E-5
0.991804,9.482402E-4,0.0069033955,3.4432154E-4
0.9863549,5.589013E-4,0.012761653,3.2460602E-4
0.99062365,0.008746137,4.405161E-4,1.8964213E-4
0.9970387,0.0014229665,0.0013796816,1.5866173E-4
0.97507983,0.0011203396,0.022041103,0.0017587628
0.19791782,0.0032025098,0.792328,0.0065516937
0.97376853,0.013430817,0.011167632,0.0016329527
0.99267465,0.0019445785,0.0052951076,8.5653744E-5
0.0027507436,0.001123469,0.99596846,1.5730302E-4
7.305002E-4,1.1408348E-4,0.998596,5.593704E-4
0.99232495,0.0026991493,0.0048933225,8.25971E-5
2.0542307E-4,5.5262197E-5,7.2732987E-4,0.999012
0.09023182,0.0017685108,0.90684074,0.0011588746
0.0049008345,1.8363254E-4,0.99445313,4.6243804E-4
0.99872977,0.0010961245,1.4262386E-4,3.147549E-5
0.004452688,0.9953082,1.8196025E-4,5.710757E-5
3.896551E-4,3.5458594E-5,4.80827E-5,0.99952686
0.9821389,9.264854E-4,0.0046750307,0.012259618
0.3990398,0.004906233,0.014880777,0.5811732
0.994269,0.0037752665,0.0015992466,3.5641727E-4
1.4283639E-4,2.6470727E-5,9.426181E-5,0.99973637
0.9817313,0.0145755885,0.0034597795,2.3338683E-4
4.0903245E-4,1.07025655E-4,3.903497E-5,0.9994449
0.99440104,0.0051385756,3.9146337E-4,6.8893874E-5
0.96193844,0.0065742135,0.008530953,0.022956416
0.99242413,0.0010284969,0.0016881888,0.0048591164
3.0711768E-4,3.264828E-5,4.21723E-4,0.9992385
0.99332607,0.0057984693,7.5047463E-4,1.2500588E-4
3.8894254E-4,1.0659211E-4,1.5426938E-4,0.99935025
0.9747546,0.0010104115,0.02412019,1.1480355E-4
0.9910726,0.0011393286,0.0069037867,8.8423426E-4
0.9860049,0.012076556,3.7920036E-4,0.0015393189
0.98685884,0.0018652009,0.009807752,0.0014681977
0.9718498,0.016027251,0.0014627385,0.010660249
0.001718789,3.0721613E-4,0.9976094,3.6462193E-4
0.98383176,0.014720915,2.9947923E-4,0.0011478756
2.7541025E-4,1.0186263E-4,0.9995763,4.6501988E-5
0.4488526,0.0064857267,0.5177436,0.026918072
0.9982157,6.511285E-4,5.0010503E-4,6.3307764E-4
0.99614835,3.871658E-4,0.0029354317,5.290586E-4
0.34750727,0.003401925,0.008567769,0.640523
0.9198175,0.008321056,0.07012111,0.0017402834
0.994915,0.0049515837,8.663018E-5,4.6803587E-5
0.98826873,0.01081243,5.2396656E-4,3.948154E-4
0.0150663685,0.008266956,0.97567433,9.92353E-4
0.992725,0.0061932253,0.0010410224,4.0709267E-5
1.0997436E-4,3.0387679E-5,1.2316133E-4,0.9997365
0.14877416,0.007689828,0.84311956,4.1646013E-4
0.88141537,0.08308924,0.03446539,0.001029999
0.99164516,0.0075661577,4.1642133E-4,3.7227018E-4
0.9921409,0.0074913222,2.6127664E-4,1.06430714E-4
0.99507457,0.0045524584,1.7933815E-4,1.9366757E-4
0.0035951517,0.001511993,0.9948036,8.927181E-5
7.483943E-4,4.5064873E-5,1.7905263E-4,0.9990275
4.253088E-4,3.531131E-5,2.074413E-4,0.9993319
0.991441,0.0037449056,0.0045891576,2.2495205E-4
0.9929141,0.005983126,9.204443E-4,1.8236395E-4
0.87483954,0.03367009,0.090019,0.0014713638
0.93446153,0.06493806,5.084231E-4,9.1924514E-5
0.98769,0.012058287,1.6971794E-4,8.204018E-5
0.9991757,7.347017E-4,3.6767575E-5,5.2761126E-5
0.9944608,0.004931356,4.927724E-4,1.150673E-4
0.9987286,5.2660273E-4,6.6593743E-4,7.887237E-5
0.96299356,0.002820451,0.033139765,0.0010462765
0.9989017,8.5016503E-4,2.0276013E-4,4.5319503E-5
0.0074836058,2.1075158E-4,0.006557903,0.98574775
0.9922646,0.0011996187,0.0064465688,8.917432E-5
0.9984181,0.0012602484,2.73794E-4,4.7818485E-5
7.524062E-4,2.9191557E-5,9.325721E-5,0.9991252
0.9946684,0.0026279562,0.002632258,7.1337156E-5
0.9985215,0.0013800985,6.419373E-5,3.423597E-5
0.9941354,0.005325871,4.85317E-4,5.340786E-5
7.531281E-5,1.6950482E-5,9.384431E-5,0.999814
0.9982279,8.058617E-5,0.0016035715,8.794882E-5
0.9988896,9.799197E-4,1.05195715E-4,2.5224734E-5
0.9994012,2.186547E-4,2.4157143E-4,1.3855501E-4
0.035091575,4.143069E-4,0.96440744,8.666197E-5
9.654414E-5,2.6529115E-5,1.22062906E-4,0.99975485
0.99441445,0.0014562354,0.0013541025,0.0027752467
7.9468585E-4,2.581508E-4,0.9988696,7.752453E-5
0.9990207,8.7431335E-4,5.512824E-5,4.9864335E-5
0.9981918,0.0012629172,3.3318624E-4,2.1206778E-4
0.99392647,0.0012263472,0.004136574,7.105761E-4
0.9989724,7.4596313E-4,2.4462747E-4,3.705229E-5
0.9943838,3.9556398E-4,0.004933827,2.8676854E-4
0.996452,7.9203583E-4,0.0026858172,7.013543E-5
0.9968232,0.0026026051,4.2324496E-4,1.5096129E-4
0.86234593,0.13625348,0.0011942888,2.0628326E-4
0.050040495,0.017822964,0.93006325,0.0020732784
0.96824306,0.0038053293,0.0076182466,0.02033336
0.98010707,0.0032879026,0.015762836,8.4213895E-4
0.98188996,0.017380008,5.434063E-4,1.8662587E-4
0.9614262,0.0018041393,0.0067185923,0.030051073
0.9967533,0.0027342702,3.9020446E-4,1.2218696E-4
0.9814866,0.017321104,5.8040814E-4,6.1192043E-4
0.44676724,0.014173277,0.21759668,0.32146284
0.9995455,3.7106234E-4,4.8729195E-5,3.468561E-5
0.9948972,0.004822543,1.9831928E-4,8.1987906E-5
0.958926,0.040308658,3.3641953E-4,4.289253E-4
1.234027E-4,2.2329716E-5,1.1781852E-4,0.9997365
0.9190987,7.330066E-4,0.040090997,0.040077385
0.99608,0.00372084,1.6180312E-4,3.7405323E-5
1.7136057E-4,9.729828E-5,8.038209E-4,0.99892753
0.9991792,7.9661695E-4,1.350144E-5,1.067561E-5
0.9688603,0.014326763,0.016095804,7.1704143E-4
0.99735874,0.0021015618,4.4461535E-4,9.510076E-5
2.1505264E-4,3.396736E-5,5.3551875E-4,0.9992155
0.037920043,2.1458787E-4,0.0021432638,0.95972204
0.977182,0.022153856,5.6405185E-4,1.00072815E-4
0.46016806,0.004495255,0.52606434,0.009272362
0.99800366,0.0019332067,4.4294502E-5,1.8876632E-5
0.9679537,0.0016090736,0.02972374,7.1350543E-4
0.007752188,0.0043079294,1.05139006E-4,0.98783475
2.8316968E-4,4.5824992E-5,0.001173107,0.99849796
0.9984291,0.0013365797,2.0685188E-4,2.7386215E-5
0.9877203,0.0032272562,0.00890837,1.440816E-4
0.9940963,0.00545599,2.919043E-4,1.5584419E-4
0.9957712,4.0105474E-4,0.0036976293,1.3004655E-4
0.9872047,0.011704968,8.5574674E-4,2.3459314E-4
0.99411786,0.0021909338,0.0035278078,1.6338666E-4
0.0018475454,2.7073064E-4,0.99671125,0.0011704095
0.90500194,0.0070300265,0.042025093,0.045942895
0.9933143,0.006149715,4.3769268E-4,9.830853E-5
5.7270686E-4,1.1623623E-4,0.9990534,2.576817E-4
0.9945949,0.0047013243,6.00837E-4,1.030008E-4
0.9957118,0.0016334685,0.0014274532,0.0012272957
0.9928778,0.0062498334,7.4582384E-4,1.2658519E-4
0.9980889,0.0018524429,3.5741858E-5,2.2919925E-5
0.99658513,0.0025978566,7.76397E-4,4.063845E-5
0.9767601,8.366946E-4,0.0222236,1.796043E-4
0.9975852,0.0021409562,1.4526825E-4,1.2858926E-4
0.9940082,0.0049936655,8.0231245E-4,1.9583401E-4
0.9748752,0.009342076,0.0154071385,3.755542E-4
0.99801934,0.0017198765,2.2460188E-4,3.6157235E-5
0.001787837,0.0016464201,0.9964616,1.0417839E-4
3.2376032E-4,8.1813385E-5,0.0010790338,0.9985154
0.99092746,0.008902316,8.5338994E-5,8.4864616E-5
3.4552492E-4,2.9139463E-5,0.9996123,1.3141201E-5
0.99827933,0.0014161547,2.6931698E-4,3.5261637E-5
0.9846384,9.820275E-4,0.002702485,0.011677068
0.9991629,6.655428E-4,1.5020008E-4,2.1354464E-5
0.0044656754,4.0758585E-4,0.9947412,3.8548053E-4
0.9922227,0.0021706107,0.0027086695,0.0028980048
0.9974821,0.0020239658,4.062961E-4,8.762167E-5
0.9970874,0.001396954,0.0013319631,1.8372976E-4
0.06573551,0.0034989254,0.039445303,0.8913202
1.5485655E-4,1.671446E-5,7.8463185E-5,0.99974996
0.0016752775,1.1071254E-4,0.99814165,7.2353454E-5
0.0019859627,1.6745954E-4,4.922921E-4,0.99735427
0.99301624,0.0059191347,8.139257E-4,2.5074993E-4
0.9994999,7.2452254E-5,3.7415692E-4,5.348233E-5
0.9959915,0.0032605487,7.028044E-4,4.5194236E-5
0.012428435,0.9874258,8.339195E-5,6.2331535E-5
0.359227,0.009653788,0.63083124,2.8800152E-4
0.0013686982,1.37985E-4,1.6158073E-4,0.9983317
0.9944437,0.0051454115,2.969854E-4,1.1387399E-4
0.99806863,2.3898482E-4,9.280129E-4,7.6443126E-4
1.9703645E-4,3.649016E-5,5.7687337E-4,0.99918956
0.0024801476,0.0010549703,0.99629635,1.6848638E-4
0.99564147,0.0017733414,0.0014854472,0.0010997538
7.168063E-4,8.2595645E-5,6.182365E-5,0.9991387
0.9974681,0.0011436546,4.3887357E-4,9.493403E-4
0.99778605,7.3052826E-4,0.0013641422,1.1929391E-4
0.9787223,0.0010526194,0.007704247,0.012520853
0.0022296722,7.169752E-5,1.3311245E-4,0.9975655
0.9984024,0.0013868689,1.5556611E-4,5.5143846E-5
0.9981831,0.0015949117,1.8654953E-4,3.543322E-5
0.0010669,6.918138E-5,9.105184E-5,0.9987728
0.9937211,0.0058110016,3.0215798E-4,1.657288E-4
0.13071078,0.86796594,0.0011016106,2.2167941E-4
0.9959508,0.003356969,3.6083435E-4,3.313178E-4
0.9994068,3.9017497E-4,1.695382E-4,3.3501416E-5
0.9955112,0.004062301,3.1549117E-4,1.11069254E-4
0.9899178,0.00853993,0.0013331983,2.0909683E-4
0.9932428,8.3070487E-4,0.0056700716,2.5637783E-4
0.9979043,0.0019167527,1.0187386E-4,7.7026794E-5
2.8781992E-4,7.3756724E-5,0.99880457,8.338852E-4
0.9994624,4.6244386E-4,5.907708E-5,1.600841E-5
0.9533755,0.041598532,0.0038127182,0.0012132367
0.99873525,3.7054255E-4,3.6310195E-4,5.3116656E-4
0.94821835,0.0020834887,0.04876563,9.3258097E-4
5.1425566E-4,2.823687E-4,0.9988607,3.4265226E-4
0.9940767,0.005261146,4.3012085E-4,2.3200469E-4
0.9961153,0.0017717954,2.0870403E-4,0.0019042022
0.9877144,9.1781985E-4,0.008909922,0.0024578685
0.9982576,0.0014434424,2.2842975E-4,7.053032E-5
0.9894723,0.010250702,2.2908316E-4,4.7930458E-5
1.4072793E-4,1.8235523E-5,8.3376086E-5,0.9997577
0.98206425,0.0019082662,0.015674196,3.5334236E-4
4.2201532E-4,9.22026E-5,0.0013268364,0.998159
0.0058083385,1.3771912E-4,0.9934883,5.6568533E-4
0.98933333,0.0102373585,3.5432697E-4,7.499668E-5
0.36049014,0.6317686,5.9832557E-4,0.007142928
0.9947813,0.002635262,0.0023217392,2.6163616E-4
7.047312E-4,6.806826E-5,1.511842E-4,0.999076
0.985523,0.0010599705,0.012519676,8.9738786E-4
0.9964514,0.0034467583,6.2404935E-5,3.9476785E-5
0.8138089,0.009051686,0.15982868,0.017310685
0.0027620292,4.5265383E-4,0.99638283,4.0247233E-4
0.003647276,7.256048E-4,0.010780315,0.98484683
0.9952519,0.0038221367,8.663067E-4,5.966407E-5
0.99751055,0.0011404428,0.0012957155,5.321943E-5
0.99907863,6.640605E-4,1.1396937E-4,1.4334347E-4
0.98560846,0.0045671333,0.009721739,1.02749815E-4
0.9959197,0.0039692624,7.341455E-5,3.764945E-5
0.9989728,6.883964E-4,2.8389393E-4,5.4998356E-5
0.99781895,1.4080347E-4,0.0016613986,3.7883932E-4
0.8753725,0.0018232196,0.122367874,4.3639084E-4
3.0338785E-4,5.176967E-5,1.9628622E-4,0.9994486
0.001700253,6.1726256E-4,0.9968081,8.743568E-4
0.99743974,0.001787126,7.333766E-4,3.9792347E-5
0.01943432,6.200863E-4,0.014740805,0.9652048
0.9802454,0.018302761,0.0012752692,1.7654752E-4
0.99756783,4.1747608E-4,9.035178E-4,0.0011111079
0.025643267,3.7034022E-4,0.01635399,0.9576324
0.98771787,0.010325692,0.0018192257,1.3722274E-4
0.92754585,0.002407537,0.06943405,6.1258086E-4
0.9828325,0.016864266,2.6199242E-4,4.1273695E-5
0.011437777,0.0029348012,0.98545945,1.679757E-4
0.9982967,1.1870202E-4,0.0013920772,1.9252839E-4
0.9984609,0.0014334769,7.57994E-5,2.9866338E-5
0.0011574996,1.9444933E-4,0.99858546,6.260273E-5
0.98374754,0.0011836839,0.012929872,0.0021389313
0.9342248,0.047369666,0.018216155,1.8938222E-4
0.98890895,0.010735886,3.0249904E-4,5.266475E-5
0.9909696,0.0081027765,8.7211345E-4,5.5570166E-5
5.2317424E-4,5.9265458E-5,9.785602E-5,0.9993197
1.6554094E-4,3.2539232E-5,4.7015445E-4,0.9993318
0.007636407,9.625758E-4,0.9911528,2.4822183E-4
0.9986615,6.980276E-4,5.5515935E-4,8.5278894E-5
0.99897325,9.139417E-4,9.735007E-5,1.5505773E-5
5.7218666E-4,1.06996704E-4,0.9981117,0.0012090369
0.9919254,0.0074637937,4.1246077E-4,1.9838722E-4
0.99022627,0.006829027,7.671435E-4,0.0021775318
0.9937523,0.0058046454,2.772863E-4,1.6572593E-4
5.6182686E-4,1.0788423E-4,3.092726E-4,0.99902105
0.0014843277,1.519892E-4,2.404886E-4,0.9981232
0.4926959,0.0015353467,0.5052163,5.52493E-4
0.99904805,9.14983E-4,1.826979E-5,1.8677341E-5
0.997615,7.959602E-4,0.001383486,2.0560488E-4
0.004216294,3.795421E-4,0.99505687,3.4727782E-4
0.99718165,0.0027479643,3.325665E-5,3.7201837E-5
0.99601895,2.5320557E-4,0.0034304333,2.9737217E-4
0.99075806,0.003924839,0.005279867,3.715289E-5
0.6433558,0.001305259,0.0045445627,0.3507944
0.7946333,0.15447745,0.05009403,7.9518056E-4
0.9887555,0.010836042,2.213285E-4,1.8712995E-4
9.7816395E-5,3.2079442E-5,1.2884261E-4,0.99974126
0.04089751,0.95551366,0.002997188,5.916959E-4
0.99807787,5.63736E-4,0.0012957855,6.255659E-5
0.77175474,0.0011308149,0.22615528,9.592197E-4
0.93475914,0.008396973,0.052517205,0.004326666
0.99410784,0.003056266,0.002628936,2.0697655E-4
0.25827,0.0012217488,0.00912507,0.7313832
0.995883,0.0031504259,8.525361E-4,1.1408819E-4
0.039004534,4.029969E-4,0.96045333,1.3910276E-4
0.9915502,0.006570233,8.477502E-4,0.0010317646
0.9981489,1.3007902E-4,0.0015734573,1.475617E-4
0.9956391,0.004222599,8.3825056E-5,5.451491E-5
0.9945365,0.003798803,9.928676E-4,6.7187025E-4
0.9993531,1.6206843E-4,3.369807E-4,1.4789014E-4
0.99241734,0.006699861,8.1761286E-4,6.5160886E-5
7.960587E-4,3.856657E-5,1.0108244E-4,0.99906427
9.70962E-4,1.0795063E-4,1.7515E-4,0.9987459
0.9888065,0.01105193,1.0706545E-4,3.4567263E-5
2.8334852E-4,6.8692345E-5,5.404336E-4,0.99910754
0.9960193,0.0023651686,0.0015315363,8.399265E-5
0.9983612,0.0010969982,4.0727516E-4,1.3457358E-4
2.4585723E-4,1.1199211E-4,0.99960333,3.8840466E-5
0.87680066,0.004174726,0.118622996,4.0161025E-4
0.9955888,0.004086098,1.6940088E-4,1.5570351E-4
9.76472E-5,2.971688E-5,1.5832226E-4,0.9997143
0.9729585,6.093413E-4,0.009132379,0.017299712
0.97485584,8.432269E-4,0.023831133,4.6987104E-4
0.99726546,1.5217578E-4,0.0023707289,2.1162705E-4
0.99408203,0.005103717,7.491662E-4,6.5043445E-5
0.99160016,0.001211558,0.0070826667,1.05675936E-4
1.7016014E-4,4.2381584E-5,0.0017962187,0.9979912
0.004886171,1.8536716E-4,0.99466705,2.6140836E-4
6.9011265E-4,1.5456883E-4,3.6697756E-4,0.9987884
0.9881131,0.0028003852,0.0010856559,0.008000846
0.9922666,0.0072196363,4.6278854E-4,5.09274E-5
0.0015617205,2.4333666E-4,0.99808335,1.1162385E-4
0.0010218768,2.1645152E-4,0.99869317,6.8499685E-5
1.3735708E-4,4.721637E-5,1.4850809E-4,0.9996669
0.9943672,0.0012451378,0.004261741,1.259609E-4
0.9865348,0.0018224291,0.010686554,9.5616677E-4
0.99056375,0.008975258,2.3628968E-4,2.2467179E-4
1.2882253E-4,2.6140056E-5,4.8157418E-4,0.9993635
0.995635,0.0038497474,4.4857847E-4,6.668471E-5
0.9976023,0.0018688058,4.292418E-4,9.9732344E-5
0.011116648,0.0026420637,0.94106245,0.04517888
0.99803156,0.0018536034,8.45939E-5,3.0251207E-5
0.9815285,0.017586084,1.7421476E-4,7.1113417E-4
0.9958311,0.0039093057,2.3876897E-4,2.0813677E-5
0.98067915,0.018968742,2.7637815E-4,7.577031E-5
0.9995467,4.118479E-4,2.0778816E-5,2.0692181E-5
0.98936874,0.0016555421,0.008758418,2.1731979E-4
8.2827796E-4,7.147107E-5,1.5337858E-4,0.99894685
0.99318814,0.0057296217,8.552998E-4,2.2697472E-4
0.008372298,0.990958,6.3750515E-4,3.221179E-5
0.99491066,0.003726395,0.0012931692,6.979579E-5
0.91254884,0.086640656,5.6329824E-4,2.4724685E-4
0.9851302,0.0029059607,0.011407478,5.564226E-4
0.99730194,0.0024374968,1.7123678E-4,8.928339E-5
0.9975395,0.0020529027,2.2367413E-4,1.8396247E-4
0.9388252,0.059434313,0.0014013149,3.3910476E-4
0.9938314,6.0821837E-4,0.00509868,4.6170817E-4
0.008480832,0.0015776263,0.98952746,4.140522E-4
0.98901784,4.2320666E-4,0.010447569,1.1133163E-4
0.99553216,0.0043445667,9.1546324E-5,3.174979E-5
0.019046849,0.98081857,1.01251964E-4,3.331432E-5
0.9976714,0.0019388943,3.1941896E-4,7.0253205E-5
0.39379257,0.58378375,0.00418039,0.01824329
0.9379675,0.0028067275,0.028950702,0.030275129
1.2969889E-4,2.9128794E-5,9.539603E-5,0.9997458
0.99504566,0.0014386898,0.003399358,1.1629245E-4
0.9722125,0.0015385451,0.022917239,0.0033317097
0.981187,0.018276941,2.9601713E-4,2.4006216E-4
0.9995908,3.5802487E-4,2.2199138E-5,2.8932764E-5
0.997456,0.0023220503,1.721588E-4,4.97634E-5
0.0011651415,4.6702673E-5,1.9379311E-4,0.99859434
0.9996019,3.4478286E-4,2.8245604E-5,2.5128582E-5
0.9568529,0.0015834054,0.03538735,0.0061763865
0.0052397787,0.9946555,8.965299E-5,1.5032439E-5
5.6067796E-4,4.5117715E-5,2.412322E-4,0.999153
0.9992902,2.6655616E-4,3.8205026E-4,6.1182865E-5
0.0010132083,2.471512E-4,2.2500777E-4,0.9985146
1.534121E-4,4.882254E-5,6.8027497E-4,0.99911743
0.9681264,0.0011723477,0.014954084,0.015747156
0.99739707,0.0011306161,8.025595E-4,6.6976243E-4
5.206277E-4,1.7366749E-4,0.9991135,1.922014E-4
0.011128663,2.3278309E-4,0.98857844,6.007799E-5
0.99368507,0.0059056454,3.514885E-4,5.779846E-5
0.0015762089,1.1122122E-4,0.9981042,2.083585E-4
0.0010067157,1.6028603E-4,0.9975116,0.0013213803
6.487628E-4,1.1139239E-4,0.9991704,6.9405025E-5
0.99345255,0.0034831215,0.0023709498,6.934057E-4
0.99792516,0.0019337757,5.695128E-5,8.410972E-5
0.99422693,0.0028465947,0.0025281606,3.982836E-4
0.99696606,3.3490814E-4,0.0020891684,6.0982205E-4
0.9794708,0.014123444,0.005738966,6.668224E-4
0.99386436,0.0031132784,0.0025408105,4.814815E-4
0.9961314,9.869675E-4,0.0022457254,6.359397E-4
0.9820749,0.008672142,0.008413215,8.3971076E-4
3.159769E-4,1.3878987E-4,0.9993343,2.1095946E-4
0.0029068494,3.3471017E-4,0.0010057813,0.9957527
0.98734915,9.248968E-4,0.011530077,1.9593448E-4
0.0022629397,9.978665E-5,7.317444E-5,0.9975641
0.93953013,0.05907695,3.773095E-4,0.0010156049
0.9971847,0.0019398622,7.3557626E-4,1.3987042E-4
0.9963303,0.0025910148,9.555311E-4,1.2312132E-4
0.9849386,0.011514626,9.4506453E-4,0.0026016815
0.98910785,9.003919E-4,0.0068265493,0.0031652036
0.9644529,0.021210518,0.014228021,1.08538254E-4
0.967738,0.0073682233,0.020789243,0.0041046417
0.98356414,0.0011825578,0.01483431,4.1896995E-4
5.3613004E-4,1.1165969E-4,5.969669E-4,0.9987552
0.99494416,6.9911126E-4,0.004283276,7.350586E-5
0.0013648636,2.0784025E-4,0.9982895,1.3770943E-4
0.932719,0.008494751,0.04913455,0.00965174
0.9991485,1.3264088E-4,6.1199744E-4,1.0686369E-4
0.001032998,6.603508E-5,2.5627716E-4,0.99864465
2.5420805E-4,3.3810884E-5,1.9866378E-4,0.99951327
8.590532E-4,1.2812024E-4,0.99894613,6.667781E-5
0.041103445,6.223757E-4,0.95813674,1.373744E-4
0.9990723,8.43578E-4,3.392598E-5,5.0164264E-5
0.9928635,0.006891723,2.007838E-4,4.406552E-5
0.9948495,0.004850648,2.328463E-4,6.693718E-5
0.5719187,0.0015246888,0.42606622,4.9036875E-4
0.88646334,0.09683436,0.01616824,5.340259E-4
0.99598086,0.00384759,1.5452495E-4,1.7054925E-5
0.996804,0.0029565056,1.8972995E-4,4.977253E-5
0.98323745,0.016183218,2.855091E-4,2.938586E-4
0.0013906517,3.7202693E-4,2.1029187E-4,0.998027
0.5704869,0.0033872447,0.42583063,2.9523973E-4
4.308258E-4,5.0012448E-5,5.032314E-4,0.9990159
0.99465585,0.0011577735,5.1599724E-4,0.0036704335
0.9994704,4.1541722E-4,8.240493E-5,3.1799573E-5
0.9094316,0.005775221,0.08378268,0.0010104978
0.7558562,0.012557851,0.013045304,0.21854062
0.99076045,9.349193E-4,0.008224466,8.015284E-5
0.9917393,0.007667222,5.295077E-4,6.3987296E-5
2.730486E-4,5.6662324E-5,6.9655146E-4,0.9989737
0.9877665,0.0029081434,0.008847482,4.7786767E-4
0.993342,0.0011491083,0.0053074695,2.0145977E-4
3.5932835E-4,6.770246E-5,6.572241E-4,0.9989158
0.95020294,0.0013324205,0.03778835,0.010676278
0.003646376,4.066312E-4,0.9957859,1.6108155E-4
8.8530855E-4,1.8872529E-4,2.4686634E-4,0.9986791
0.96925765,0.01935405,0.010413825,9.7447704E-4
0.99518496,0.0045528593,1.6165896E-4,1.00544086E-4
0.97858846,0.020707842,6.292156E-4,7.4432595E-5
0.0011312299,1.277979E-4,2.3254925E-4,0.9985084
0.069862515,0.0028555857,0.9269788,3.030624E-4
1.3613909E-4,1.5328946E-5,4.433744E-4,0.99940515
0.33292273,0.46829125,0.07302552,0.12576056
0.99843496,0.0011162618,4.2076426E-4,2.7950717E-5
1.8168974E-4,4.4060173E-5,4.6384067E-4,0.9993104
0.9855138,0.009921356,0.004364435,2.0036701E-4
1.6595067E-4,2.370626E-5,1.3713611E-4,0.99967325
1.5523168E-4,4.2476564E-5,6.440958E-4,0.99915814
3.0130814E-4,3.466496E-5,5.5236067E-4,0.9991116
3.408931E-4,5.313652E-5,2.652236E-4,0.9993407
1.14651484E-4,3.5488254E-5,1.3155278E-4,0.99971825
0.9391384,9.270156E-4,0.0089738155,0.050960705
0.9982266,8.530169E-5,0.001321489,3.666169E-4
0.99799687,0.0018616403,1.11783345E-4,2.963382E-5
0.9997063,2.0867365E-4,6.0178758E-5,2.4820614E-5
0.0011584199,8.790885E-5,0.9986681,8.564834E-5
0.010408582,0.0012273766,0.9864173,0.0019467825
0.9862162,0.013581827,1.5440666E-4,4.755976E-5
0.9982667,0.0015344397,1.7119969E-4,2.7686516E-5
0.9804467,0.01374455,0.0047245068,0.0010841843
3.2820983E-4,3.316308E-4,0.999281,5.922339E-5
0.0019641526,1.2893474E-4,0.99779785,1.0907323E-4
0.99944323,4.5319105E-4,5.970771E-5,4.3904198E-5
0.9950622,5.994197E-4,0.0041680196,1.7042828E-4
7.306318E-4,6.525861E-5,1.9052482E-4,0.99901354
0.9906475,0.008788195,2.2551621E-4,3.3877796E-4
0.9856843,6.3742325E-4,0.002960004,0.010718308
0.9948521,0.0011838409,0.0035468787,4.1712468E-4
0.8973423,0.095577925,0.002690016,0.004389712
0.9937216,2.2558069E-4,0.0058272453,2.256446E-4
0.9869648,0.012220901,3.4443132E-4,4.6979956E-4
0.0021322481,0.0017431289,0.9952554,8.691602E-4
0.25056633,0.7470698,4.7122577E-4,0.0018926568
0.92636156,0.008012871,0.063247174,0.0023783648
0.99824274,0.0015688947,1.4217253E-4,4.619057E-5
0.01431465,6.328304E-4,0.003911014,0.9811415
0.41321394,9.7107864E-4,0.5852753,5.3972076E-4
0.98784876,5.147413E-4,0.011536703,9.980519E-5
0.9972783,0.0024541887,2.320595E-4,3.550063E-5
0.99779296,0.002094996,7.768595E-5,3.441732E-5
0.056147687,0.0019518374,0.9411052,7.9529086E-4
0.99690765,0.0027794188,2.8070802E-4,3.2272997E-5
0.99530596,7.4943394E-4,0.0037401456,2.0440372E-4
0.99538165,0.0036441851,9.277999E-4,4.6329642E-5
7.075248E-4,1.5822584E-4,0.9989273,2.0699199E-4
0.012088479,2.6140202E-4,0.005964864,0.98168534
0.99446315,0.004710343,7.1507716E-4,1.1139944E-4
0.9767982,0.022510359,5.787848E-4,1.1265985E-4
0.9981766,2.6791575E-4,6.2312925E-4,9.323747E-4
1.4527372E-4,3.7205453E-5,5.2165944E-4,0.99929583
0.92479867,0.07287408,0.0010163615,0.0013109355
0.9789331,0.020483943,4.4688155E-4,1.3607298E-4
0.99883455,8.123336E-4,2.5407976E-4,9.901639E-5
0.9702635,0.01589249,0.013540932,3.0306465E-4
0.9633742,0.004031828,0.024967562,0.0076263947
0.075449035,0.0015848386,0.9226078,3.5837988E-4
0.9770045,8.575877E-4,0.0071354574,0.015002431
0.9955611,0.0039844415,4.0019306E-4,5.424486E-5
0.9988034,9.921871E-4,1.6904845E-4,3.5334597E-5
0.98706114,0.0032648589,0.009087004,5.870654E-4
0.9905901,4.962628E-4,0.0067099133,0.0022037488
0.9756226,0.02413395,2.0064975E-4,4.2819956E-5
2.0785326E-4,3.7060865E-5,4.725001E-4,0.99928266
0.0033128506,0.0018401268,0.99464464,2.0234495E-4
0.9952779,0.004112526,3.351933E-4,2.7445614E-4
0.99229574,0.0072633494,3.2074918E-4,1.2014658E-4
0.3132547,0.009757156,0.6767905,1.9769729E-4
0.0062279226,0.0014233489,0.99217826,1.7046575E-4
0.9611832,0.001095976,0.037365258,3.5559502E-4
0.99177295,0.0074147615,5.7903473E-4,2.3320992E-4
0.99590886,0.0022230314,0.0017710035,9.7054035E-5
8.542251E-5,1.9595773E-5,1.06763066E-4,0.9997882
0.98757756,0.001093051,0.009614608,0.0017148337
2.9685185E-4,1.4392968E-4,0.9992849,2.743431E-4
0.0020023005,0.002662942,0.9942222,0.001112526
0.97829103,0.012817507,0.00790742,9.83987E-4
6.0579553E-4,1.6465737E-4,0.99898905,2.404687E-4
5.057801E-4,4.94708E-5,7.83808E-5,0.99936634
0.9984855,1.0687225E-4,0.0012715473,1.3607752E-4
0.98162603,0.0068785003,0.0047436655,0.0067518367
0.978318,0.02117924,2.9978208E-4,2.0299345E-4
0.84228206,0.15678355,8.306039E-4,1.0376006E-4
0.007711093,9.7550673E-4,6.507699E-5,0.99124825
0.9966827,0.0031153732,9.630697E-5,1.0562414E-4
1.4780412E-4,2.032385E-5,8.428052E-5,0.9997476
0.0026947428,1.00867175E-4,0.0010802671,0.9961241
0.9987036,6.242284E-4,5.134606E-4,1.5866861E-4
8.3205884E-4,1.3855592E-4,0.99815315,8.761794E-4
0.98172253,5.968524E-4,0.017572207,1.08365406E-4
0.0029699453,0.0010325995,0.99556977,4.2765864E-4
0.9875238,0.012075152,3.0511044E-4,9.591181E-5
8.123412E-4,1.5380394E-4,9.251054E-4,0.99810874
0.99868006,0.0012761044,2.9212631E-5,1.460968E-5
0.9911765,0.0011953458,0.0075797373,4.8476228E-5
0.0014425459,0.0014177908,0.9970601,7.9538666E-5
0.9751252,0.023957562,8.5154345E-4,6.5692635E-5
0.97405803,0.025239512,5.758614E-4,1.2661993E-4
0.002490742,2.7556013E-4,0.001212818,0.99602085
0.7349314,0.0046580266,0.095583454,0.16482714
0.97931814,0.018488772,0.0019235519,2.6952586E-4
4.0106746E-4,3.4775847E-5,2.2792107E-4,0.9993362
0.00384326,6.7874225E-4,0.9953767,1.0123502E-4
0.9956383,8.978733E-4,0.0030754143,3.8840654E-4
0.005934394,2.7141083E-4,0.9937056,8.8576235E-5
0.9926363,0.0061675822,0.001160407,3.561769E-5
5.766329E-4,1.5575929E-4,0.99881124,4.5636154E-4
0.0010502937,9.85477E-5,0.9987791,7.200106E-5
0.001955256,0.0016824909,0.99627614,8.61471E-5
0.9683821,0.0031736174,0.02687777,0.0015665266
0.99553984,0.0010261728,0.003333701,1.0027337E-4
0.99563843,0.0039038984,3.4463365E-4,1.1302564E-4
0.0014795319,1.5064506E-4,0.99785346,5.1630515E-4
0.9957229,0.004096525,1.14148315E-4,6.643041E-5
4.0627614E-4,3.12974E-5,2.8661542E-4,0.99927586
0.9866362,0.012955379,2.7255176E-4,1.3581678E-4
0.8465901,0.023909213,0.12014154,0.009359153
0.9937231,0.0059833657,2.4392987E-4,4.9570644E-5
0.019848647,0.9797166,3.8634648E-4,4.8399772E-5
0.95493114,0.0042716283,0.038916066,0.0018811384
0.9724805,0.0010649713,0.017150868,0.009303619
0.99693966,0.002085672,5.0440524E-4,4.702641E-4
0.9886742,0.0011106674,0.01009198,1.2313017E-4
0.9113959,0.008717434,0.045015015,0.034871656
0.99510443,4.475214E-4,0.0043544634,9.357059E-5
4.3305414E-4,6.707305E-5,4.1716885E-5,0.99945813
0.9808226,0.018959064,1.309827E-4,8.736429E-5
0.99905604,8.285668E-4,4.8308975E-5,6.704531E-5
0.998376,0.0014603277,1.0505113E-4,5.8538215E-5
0.9904855,0.0052878084,0.0041098157,1.16808806E-4
0.9990823,7.101939E-4,1.7647643E-4,3.1013085E-5
0.99560577,0.004053167,2.9741586E-4,4.3626813E-5
0.95480126,0.008295219,0.03649947,4.0398588E-4
0.9775583,0.0038598266,0.018189628,3.9214606E-4
4.4295457E-4,5.1494957E-5,4.971986E-4,0.99900836
0.9078701,0.010110453,0.081109956,9.095438E-4
0.99804425,0.0018924411,3.9106715E-5,2.4173178E-5
0.98770916,2.3861644E-4,0.01124339,8.0886733E-4
0.0012204119,3.6138992E-4,0.99097323,0.0074450183
0.008089778,9.909658E-4,0.9903617,5.576001E-4
0.001770905,1.3125184E-4,2.0692755E-4,0.9978909
0.0016101083,1.4710943E-4,0.99799865,2.4413885E-4
2.8471855E-4,5.6785466E-5,0.9995764,8.213998E-5
0.9852727,0.0053103594,0.008832743,5.841654E-4
0.99675155,0.002835016,3.7545236E-4,3.8048063E-5
0.9990676,8.1826973E-4,8.919426E-5,2.4959805E-5
0.9970004,0.0027439601,2.2421985E-4,3.1408646E-5
0.0016263184,2.547773E-4,7.372379E-4,0.9973816
0.94002044,0.0023948788,0.0558655,0.001719175
0.0015871593,5.6767714E-4,7.252203E-5,0.99777263
0.9984012,0.001230403,3.171835E-4,5.1246458E-5
0.0019209074,1.4521724E-4,0.99789894,3.4899433E-5
0.9894839,0.002668735,0.0057493537,0.002098057
0.0019679056,1.2488886E-4,0.0018918756,0.99601525
0.993778,0.0014899179,0.0043313475,4.007691E-4
0.98234653,0.0017868801,0.015697088,1.6942243E-4
0.0024344416,6.881099E-4,0.9968144,6.3087515E-5
0.0010946587,4.5884005E-4,0.0016516934,0.99679476
3.8089065E-4,3.410043E-5,2.9234524E-4,0.9992926
5.955992E-4,6.048034E-5,0.99929714,4.6707246E-5
0.9944259,4.1412088E-4,0.0048972825,2.6264274E-4
7.01989E-4,1.14091126E-4,2.2381052E-4,0.99896014
0.99756986,0.0017544038,6.4812676E-4,2.7616523E-5
0.9991547,8.0614234E-4,2.2815268E-5,1.6409167E-5
0.9970746,0.002029851,8.473751E-4,4.8228707E-5
0.003981707,0.99585897,1.1103158E-4,4.8288577E-5
0.0011099881,5.5715638E-5,2.8262695E-4,0.99855167
0.9932105,0.004804973,0.001622007,3.6259549E-4
0.0011481014,5.928477E-5,3.2495306E-4,0.9984676
0.9903509,0.0070059556,0.0022278633,4.152319E-4
0.98551774,0.001230078,0.009597832,0.0036543321
0.9961437,0.002947597,8.6721487E-4,4.1448966E-5
0.99644536,0.0025179768,9.2124485E-4,1.1538889E-4
0.17997012,0.2216964,0.5668549,0.031478632
0.99692875,9.487369E-4,0.0020487325,7.37831E-5
0.004007444,6.083088E-4,0.002139004,0.9932453
0.03943878,0.01447468,0.944735,0.001351558
0.0029553545,5.3238915E-4,0.9963062,2.0605409E-4
0.99892753,3.4431313E-4,5.556132E-4,1.7254602E-4
0.9161678,0.08305755,5.75438E-4,1.9929164E-4
0.9962739,0.0031857311,4.912233E-4,4.915661E-5
0.5003604,0.0011823239,0.41591868,0.08253857
0.99503064,0.004447659,4.3168952E-4,9.003422E-5
0.9441981,0.036937352,0.013825613,0.0050389194
0.99684286,0.0020142405,8.4331736E-4,2.9957533E-4
0.9878841,0.0067105964,0.0040381383,0.0013671331
0.99741614,0.0023742018,1.3646614E-4,7.318634E-5
0.9791716,0.002070943,0.008119754,0.0106377
0.9935407,0.0018214685,0.0042316583,4.062072E-4
0.9963141,0.0017119307,0.0015764361,3.9752614E-4
0.99741024,0.002133344,3.8275408E-4,7.366128E-5
0.005195917,0.002052197,7.0343674E-5,0.99268156
0.9970367,0.0024397948,3.303645E-4,1.9319175E-4
0.99624914,0.00357942,1.3491685E-4,3.6586393E-5
0.9822603,0.01282478,0.0024865977,0.0024283726
0.84823954,0.01851209,0.10512741,0.028121004
0.9947484,0.0051384815,6.784953E-5,4.5227454E-5
0.9948165,0.0044906777,5.832626E-4,1.09532855E-4
0.0016385649,6.569635E-5,0.998069,2.2679608E-4
0.9968838,0.003015628,6.4039756E-5,3.649488E-5
0.9525948,0.044825703,0.001893619,6.858976E-4
0.9981002,4.435901E-4,2.9301012E-4,0.001163154
0.99101675,0.007796567,0.0011234183,6.3255444E-5
0.102620974,0.004665219,0.8590223,0.033691455
0.07516237,5.600349E-4,0.92391676,3.6081704E-4
0.9820373,0.003806472,0.013387523,7.687246E-4
0.9908105,8.581413E-4,0.008199182,1.3222382E-4
4.7246332E-4,7.76225E-5,0.99936444,8.543924E-5
5.6183763E-4,1.08939166E-4,0.999035,2.942954E-4
2.058327E-4,6.22679E-5,3.1697247E-4,0.9994149
1.06459906E-4,3.1817613E-5,1.6186759E-4,0.99969983
0.983146,0.01654335,2.6131855E-4,4.934609E-5
0.29852355,0.0015153775,0.69759905,0.002362024
0.9932011,8.473104E-4,0.0013894764,0.00456217
3.1819294E-4,9.6411386E-5,0.99915254,4.328055E-4
0.99795663,0.0018141014,2.0354331E-4,2.5687736E-5
0.9872787,0.012231191,4.0256674E-4,8.7481465E-5
0.9904484,0.0014000247,0.00463567,0.0035159127
0.9976814,0.0018346747,4.5699684E-4,2.691884E-5
1.5567968E-4,3.6832793E-5,1.7774498E-4,0.99962974
0.99920636,7.2596915E-4,4.8316844E-5,1.9408513E-5
0.22324435,0.0014205304,0.0034526165,0.7718825
0.9698148,0.015169637,0.013295056,0.0017204965
0.034800988,6.5706775E-4,0.9643458,1.9611584E-4
0.9949745,9.1373886E-4,0.00402513,8.662214E-5
0.9981893,0.0017132759,6.974208E-5,2.774971E-5
2.0445722E-4,4.1458337E-5,1.5963514E-4,0.9995945
0.99428105,0.005278079,1.951507E-4,2.4567958E-4
0.99936336,2.9199477E-4,2.9277356E-4,5.186077E-5
8.56888E-4,1.0958756E-4,0.99781007,0.0012234946
0.998331,7.3861453E-4,8.636263E-4,6.67888E-5
0.00520067,3.0975777E-4,0.9943982,9.1391485E-5
0.9962057,0.0030046965,6.108269E-4,1.788013E-4
0.93714416,6.397982E-4,0.06188392,3.3208026E-4
0.9873661,0.00917312,0.003074139,3.8662727E-4
0.9864064,0.0023963295,0.009178444,0.0020188405
4.7075324E-4,6.37483E-5,0.9994091,5.6429624E-5
0.9971391,0.00216033,4.3385077E-4,2.667164E-4
0.99048656,0.009334698,1.2744516E-4,5.1239782E-5
0.97971046,0.0152983945,0.0044657215,5.254582E-4
0.871262,0.12684353,0.0017993983,9.511475E-5
0.99740016,0.002120378,3.9284982E-4,8.6676446E-5
0.9944173,0.0010953537,0.0043464378,1.4088006E-4
0.9875665,0.009969226,0.002330778,1.3351963E-4
0.99480826,5.939435E-4,0.0036013369,9.965359E-4
0.9899762,0.0038877246,0.00592788,2.0817517E-4
0.9931236,6.051764E-4,0.0057774484,4.937499E-4
0.99586594,2.536425E-4,0.0032945382,5.8590603E-4
0.98013467,0.0013754643,0.016102422,0.0023874636
0.996452,4.93939E-4,0.0028457749,2.0825595E-4
0.9962261,0.002307215,0.0014093093,5.7419096E-5
0.99851114,3.2845745E-4,9.809567E-4,1.7945435E-4
0.0010668109,6.6481865E-5,0.9986871,1.7964935E-4
0.9961016,0.0030045,8.4432086E-4,4.957063E-5
0.99771726,0.0015094848,4.142496E-4,3.590766E-4
0.99818605,0.0017250949,6.8890426E-5,1.9900894E-5
0.99265105,0.006632363,6.478301E-4,6.876849E-5
0.99025273,0.006349047,0.003155986,2.4227051E-4
0.9984049,5.383094E-4,7.0234726E-4,3.54427E-4
0.997267,0.002584414,4.8193044E-5,1.0043268E-4
0.99377304,0.0060219816,9.7964126E-5,1.0702957E-4
0.977849,0.021318065,7.152912E-4,1.1755782E-4
0.0010291907,5.2219457E-5,7.3199415E-5,0.99884534
0.97560877,0.004325546,0.019581234,4.8441274E-4
0.99828774,8.6989906E-4,7.211018E-4,1.21222685E-4
0.9885123,0.011328269,8.5715685E-5,7.377845E-5
0.99377304,0.006024095,1.1015779E-4,9.276888E-5
0.79745126,0.17969337,0.021426545,0.0014288884
0.020687338,2.1771612E-4,0.97902405,7.095371E-5
0.99764305,4.3292155E-5,0.0020123424,3.0126495E-4
0.9931058,0.0057240077,5.437496E-4,6.263848E-4
0.9934802,0.0064649265,4.142057E-5,1.3459942E-5
0.15678358,0.84282714,3.5260085E-4,3.66554E-5
0.9557696,0.009938629,0.031772524,0.002519269
0.004269787,6.803656E-4,0.99413717,9.127105E-4
0.9980976,0.0011815192,5.882029E-4,1.3263487E-4
0.6797564,9.0105744E-4,0.31917605,1.6649372E-4
0.99910766,7.5835665E-4,5.555401E-5,7.8397745E-5
0.99935716,5.74059E-4,5.1178544E-5,1.7644712E-5
0.9929438,2.758735E-4,0.0057583726,0.0010218701
8.551593E-4,1.2488615E-4,0.9985587,4.612781E-4
0.43323612,0.0027121753,0.5631846,8.671101E-4
7.3294766E-4,0.0034915463,0.9957509,2.4556888E-5
0.59948593,0.37082994,0.023571664,0.0061124642
4.2350346E-4,8.7288965E-5,3.54471E-4,0.9991347
0.9970331,0.002730857,2.07727E-4,2.8345554E-5
0.9973001,0.0012569417,0.0013477475,9.5273805E-5
4.1478185E-4,8.026541E-5,1.6076038E-4,0.99934417
1.9112002E-4,2.6069189E-5,2.197245E-4,0.99956304
7.887828E-4,1.8848748E-4,0.0010739289,0.9979488
0.9983197,0.0014527106,1.4624206E-4,8.1359416E-5
0.009054458,4.2490562E-4,0.99028593,2.3467318E-4
5.343557E-4,1.5924808E-4,0.99899083,3.1553474E-4
0.9972953,0.0013253838,0.0012593372,1.199818E-4
0.0016683728,2.1817729E-4,1.2756753E-4,0.99798584
0.99139446,8.4594305E-4,0.007504739,2.5479103E-4
0.001236268,6.7361805E-5,2.915131E-4,0.9984049
0.99789244,0.0019188012,1.2339506E-4,6.542191E-5
0.9912992,6.3442806E-4,0.0077502327,3.1613454E-4
0.9962638,5.2719895E-4,0.0030445151,1.6448686E-4
5.265521E-4,2.465457E-4,0.9987545,4.723776E-4
0.9992048,6.933283E-4,6.600298E-5,3.5932244E-5
7.6908036E-4,4.9342703E-5,2.512776E-4,0.9989303
0.99922466,4.3140922E-4,1.9193921E-4,1.5197549E-4
6.362692E-4,9.858622E-5,0.99878174,4.833905E-4
1.8777703E-4,2.7867261E-5,1.0652744E-4,0.9996779
0.019223055,4.456163E-4,4.1288085E-4,0.9799185
0.99090576,0.005583844,0.003146864,3.6353729E-4
5.50349E-4,1.1623882E-4,0.99907565,2.5768744E-4
0.9839483,6.2628125E-4,0.015293412,1.3197017E-4
0.99801135,0.0016024732,3.3942916E-4,4.672435E-5
0.9954117,0.0040926696,1.938134E-4,3.0183065E-4
0.9875115,0.012122065,2.863911E-4,8.0075435E-5
0.0019549145,0.9973749,6.161418E-4,5.404465E-5
0.99919385,2.0483557E-4,3.910021E-4,2.1036151E-4
0.99638355,0.0031800682,4.0462744E-4,3.173479E-5
3.122475E-4,4.831548E-5,1.601029E-4,0.99947935
0.45560938,0.52439827,0.003245545,0.01674681
7.979333E-4,0.0011991439,0.9975961,4.068024E-4
0.9991033,6.580898E-4,2.094267E-4,2.9256746E-5
0.99747735,0.0020951035,3.9075577E-4,3.673873E-5
0.993772,0.005900526,1.4436203E-4,1.8313734E-4
0.010040145,0.0038880191,4.5584238E-4,0.98561597
0.9835181,0.0032213994,0.0058116317,0.00744888
0.99597436,0.0030214847,9.067666E-4,9.7330805E-5
0.0011021224,2.4621136E-4,2.6849998E-4,0.99838316
0.001496951,0.9924763,0.0059282994,9.853012E-5
0.99794406,0.001875168,1.5692392E-4,2.3836561E-5
3.8211912E-4,4.5177003E-5,0.999519,5.375734E-5
0.7464609,0.001666663,0.023459163,0.22841331
0.0010554247,2.5840034E-4,1.05019615E-4,0.9985812
0.99517596,0.0011054483,0.0032763758,4.421593E-4
1.0791919E-4,2.845781E-5,1.3180675E-4,0.99973184
0.96987444,0.0011805509,0.028845275,9.977902E-5
0.0042695617,2.103907E-4,0.9953843,1.3571465E-4
0.9852786,7.1234145E-4,0.013932537,7.648224E-5
0.98904955,0.010282104,3.9024028E-4,2.7808716E-4
0.9954965,4.4639758E-4,0.0039310497,1.2609229E-4
0.9945529,0.0050579403,1.8796328E-4,2.0119354E-4
0.9910142,0.0021077865,0.006774739,1.0327248E-4
0.9987332,8.5310196E-4,3.6463325E-4,4.9079612E-5
0.9691767,0.03024564,4.719524E-4,1.05733794E-4
0.9908285,0.008658977,2.0263196E-4,3.0982544E-4
0.016837431,0.006422025,0.0011609875,0.9755796
0.99522877,0.0011355478,0.0035382565,9.741333E-5
0.9970962,0.0019327424,7.120673E-4,2.5901556E-4
0.001061395,2.2323734E-4,0.99750084,0.0012145605
0.9965773,6.015153E-4,0.00257588,2.4521278E-4
0.999181,3.5103376E-4,3.59286E-4,1.086551E-4
0.994066,0.0014129463,6.6203246E-4,0.0038589858
0.9969681,0.0026857967,3.0626182E-4,3.9824503E-5
9.826935E-4,2.552844E-4,0.9985953,1.6673827E-4
0.4425912,0.1612675,0.39462915,0.0015121835
0.0010860255,9.337768E-5,1.4050856E-4,0.99868006
0.9880264,0.0098373145,0.0014017029,7.345557E-4
9.235039E-4,5.6943274E-5,0.0013679257,0.99765164
0.9989749,8.922036E-4,1.1402732E-4,1.8915953E-5
0.99887663,9.3022635E-4,1.0922439E-4,8.3901294E-5
0.9871968,0.0024458682,0.0027522435,0.0076051443
0.9980134,0.0017266478,1.9990945E-4,6.005302E-5
0.001713042,6.546346E-5,2.209242E-4,0.99800056
0.9906262,0.0051403255,0.0037472777,4.8614483E-4
0.96871066,0.030785406,4.266808E-4,7.725974E-5
0.99901855,5.389606E-4,3.6337713E-4,7.9113925E-5
0.9655857,0.0059452476,0.024171006,0.0042980243
0.79636806,0.20343569,1.0684208E-4,8.9389345E-5
0.09776104,0.0024730384,0.051173244,0.8485927
0.0031250236,6.846564E-4,0.99570054,4.8976403E-4
0.9637757,0.001470483,0.03378224,9.7164453E-4
0.97597826,0.017625729,0.005795956,6.00076E-4
0.001765211,4.704092E-4,4.5864072E-4,0.99730575
2.550565E-4,6.276137E-5,2.9179832E-4,0.99939036
0.98126316,0.018374171,3.0769713E-4,5.4949985E-5
1.8323468E-4,5.822705E-5,7.5830653E-4,0.99900025
0.9988244,0.0010116815,9.2657254E-5,7.124157E-5
0.32498085,0.017495451,0.5695632,0.08796048
0.9946418,0.004900294,4.0335135E-4,5.455897E-5
0.98472404,0.014188967,0.0010275268,5.949923E-5
0.9958824,0.0036166427,4.4754162E-4,5.3404754E-5
0.99753404,4.004034E-4,0.0018891058,1.7641245E-4
1.7204788E-4,2.0068057E-5,4.3878358E-4,0.9993691
0.9989976,4.0471944E-4,4.6699325E-4,1.3066639E-4
0.9975533,0.0018690446,5.400503E-4,3.7654998E-5
0.9979448,0.0014009033,5.449765E-4,1.0936618E-4
0.013323571,0.98588425,5.425436E-4,2.4966607E-4
0.9989213,5.3311395E-4,3.3203606E-4,2.136043E-4
3.383834E-4,8.269768E-5,0.99949,8.8885536E-5
7.200711E-4,4.306187E-5,6.8985355E-5,0.9991679
0.9989692,9.2320354E-4,7.445901E-5,3.3156604E-5
6.403699E-4,1.0682994E-4,4.6182872E-4,0.99879104
0.9960347,0.0032360356,6.139069E-4,1.1541912E-4
